timestamp,ecg_measurement,qrs_detected
0.000000000000000000e+00,-5.113078568981511696e-01,0.000000000000000000e+00
1.000000000000000000e+00,-9.253774049994291095e-01,0.000000000000000000e+00
2.000000000000000000e+00,-5.577437507572824416e-01,0.000000000000000000e+00
3.000000000000000000e+00,-6.632988921912416624e-02,0.000000000000000000e+00
4.000000000000000000e+00,-2.974005207289483546e-02,0.000000000000000000e+00
5.000000000000000000e+00,-5.804525710661742055e-01,0.000000000000000000e+00
6.000000000000000000e+00,6.412056274409915213e-01,0.000000000000000000e+00
7.000000000000000000e+00,-3.792134960072386374e-01,0.000000000000000000e+00
8.000000000000000000e+00,-6.458301290963899266e-01,0.000000000000000000e+00
9.000000000000000000e+00,5.910671093809281018e-01,1.000000000000000000e+00
1.000000000000000000e+01,-5.985568011510725844e-02,0.000000000000000000e+00
1.100000000000000000e+01,-1.426256286112417559e-01,0.000000000000000000e+00
1.200000000000000000e+01,6.960011718536721625e-01,0.000000000000000000e+00
1.300000000000000000e+01,-1.510175685594314365e-01,0.000000000000000000e+00
1.400000000000000000e+01,-4.135047106645128867e-01,0.000000000000000000e+00
1.500000000000000000e+01,9.709467274454735009e-01,0.000000000000000000e+00
1.600000000000000000e+01,-2.853514843690353464e-01,0.000000000000000000e+00
1.700000000000000000e+01,1.548806656784116886e-01,0.000000000000000000e+00
1.800000000000000000e+01,7.213424868825042413e-01,0.000000000000000000e+00
1.900000000000000000e+01,1.748274787626132726e-02,0.000000000000000000e+00
2.000000000000000000e+01,1.512863505803864195e-01,0.000000000000000000e+00
2.100000000000000000e+01,4.312340456081305007e-01,0.000000000000000000e+00
2.200000000000000000e+01,6.472331118696513785e-01,0.000000000000000000e+00
2.300000000000000000e+01,1.526487780605227662e-01,0.000000000000000000e+00
2.400000000000000000e+01,-4.619359395384016187e-01,0.000000000000000000e+00
2.500000000000000000e+01,4.151055827431498479e-01,0.000000000000000000e+00
2.600000000000000000e+01,3.992654595786936378e-01,0.000000000000000000e+00
2.700000000000000000e+01,8.586755548025165607e-01,0.000000000000000000e+00
2.800000000000000000e+01,1.459939426775116011e+00,0.000000000000000000e+00
2.900000000000000000e+01,3.139763929618170746e+00,0.000000000000000000e+00
3.000000000000000000e+01,1.488013393217228586e+00,0.000000000000000000e+00
3.100000000000000000e+01,-1.949984367328352897e-01,0.000000000000000000e+00
3.200000000000000000e+01,-5.714439052675900355e-01,0.000000000000000000e+00
3.300000000000000000e+01,-1.086041356976467226e-01,0.000000000000000000e+00
3.400000000000000000e+01,-2.722971928138731013e-01,0.000000000000000000e+00
3.500000000000000000e+01,-3.436133706316397141e-01,0.000000000000000000e+00
3.600000000000000000e+01,-2.405602043659389733e-01,0.000000000000000000e+00
3.700000000000000000e+01,4.123409706569510225e-01,0.000000000000000000e+00
3.800000000000000000e+01,-1.770938189665028084e-01,0.000000000000000000e+00
3.900000000000000000e+01,8.373604811237463086e-02,0.000000000000000000e+00
4.000000000000000000e+01,6.713323964643252983e-01,0.000000000000000000e+00
4.100000000000000000e+01,-2.351423768968422812e-01,0.000000000000000000e+00
4.200000000000000000e+01,3.794632392273287191e-01,0.000000000000000000e+00
4.300000000000000000e+01,6.183873986039514214e-01,0.000000000000000000e+00
4.400000000000000000e+01,1.672980583443312019e+00,0.000000000000000000e+00
4.500000000000000000e+01,9.144550166134624014e-01,0.000000000000000000e+00
4.600000000000000000e+01,1.693871187569551129e+00,0.000000000000000000e+00
4.700000000000000000e+01,-9.172741049225625887e-02,0.000000000000000000e+00
4.800000000000000000e+01,7.625737854730385568e-02,0.000000000000000000e+00
4.900000000000000000e+01,-7.996186768754126595e-01,0.000000000000000000e+00
5.000000000000000000e+01,-5.929150530227815796e-01,0.000000000000000000e+00
5.100000000000000000e+01,-1.405342588403826420e+00,0.000000000000000000e+00
5.200000000000000000e+01,-1.604824153976721401e+00,0.000000000000000000e+00
5.300000000000000000e+01,-1.722293047936489518e+00,0.000000000000000000e+00
5.400000000000000000e+01,-3.594649009854881672e-01,0.000000000000000000e+00
5.500000000000000000e+01,-1.284366537095228855e+00,0.000000000000000000e+00
5.600000000000000000e+01,-1.730379953499599166e+00,0.000000000000000000e+00
5.700000000000000000e+01,3.555938131614838627e-01,0.000000000000000000e+00
5.800000000000000000e+01,-1.387137917963774836e+00,1.000000000000000000e+00
5.900000000000000000e+01,-1.378510925340971749e+00,0.000000000000000000e+00
6.000000000000000000e+01,-5.169863919894133186e-01,0.000000000000000000e+00
6.100000000000000000e+01,-1.397861850011326568e-01,0.000000000000000000e+00
6.200000000000000000e+01,-8.500227199888150953e-02,0.000000000000000000e+00
6.300000000000000000e+01,-1.245697647786652290e-01,0.000000000000000000e+00
6.400000000000000000e+01,-1.038379570579012201e+00,0.000000000000000000e+00
6.500000000000000000e+01,-8.983090417070158096e-02,0.000000000000000000e+00
6.600000000000000000e+01,3.422079451337154410e-01,0.000000000000000000e+00
6.700000000000000000e+01,8.626450169756191833e-02,0.000000000000000000e+00
6.800000000000000000e+01,-1.333763716225753460e-01,0.000000000000000000e+00
6.900000000000000000e+01,-5.796028117958789139e-01,0.000000000000000000e+00
7.000000000000000000e+01,3.709722815031768484e-01,0.000000000000000000e+00
7.100000000000000000e+01,-1.599156797471868729e-01,0.000000000000000000e+00
7.200000000000000000e+01,3.070510988162467036e-01,0.000000000000000000e+00
7.300000000000000000e+01,1.451601090947169936e-01,0.000000000000000000e+00
7.400000000000000000e+01,4.929418773599215653e-01,0.000000000000000000e+00
7.500000000000000000e+01,-8.467739360355860390e-01,0.000000000000000000e+00
7.600000000000000000e+01,1.161362374136672315e+00,0.000000000000000000e+00
7.700000000000000000e+01,-2.831315390999216697e-01,0.000000000000000000e+00
7.800000000000000000e+01,3.623912099596510172e-01,0.000000000000000000e+00
7.900000000000000000e+01,-1.263623511549248901e-01,0.000000000000000000e+00
8.000000000000000000e+01,-1.932347163037904381e-01,0.000000000000000000e+00
8.100000000000000000e+01,1.023673644932964644e+00,0.000000000000000000e+00
8.200000000000000000e+01,-1.030078994642028289e-01,0.000000000000000000e+00
8.300000000000000000e+01,-6.857031632031676538e-02,0.000000000000000000e+00
8.400000000000000000e+01,4.718201677235978608e-01,0.000000000000000000e+00
8.500000000000000000e+01,-9.264978054675007124e-01,0.000000000000000000e+00
8.600000000000000000e+01,1.620153105336987531e+00,0.000000000000000000e+00
8.700000000000000000e+01,1.465524743813674480e+00,0.000000000000000000e+00
8.800000000000000000e+01,1.177498023759847134e+00,0.000000000000000000e+00
8.900000000000000000e+01,1.725132292576177839e+00,0.000000000000000000e+00
9.000000000000000000e+01,1.350803159406830822e+00,0.000000000000000000e+00
9.100000000000000000e+01,-3.862487267978782501e-01,0.000000000000000000e+00
9.200000000000000000e+01,2.199814248201015232e-01,0.000000000000000000e+00
9.300000000000000000e+01,-4.180772293038728105e-01,0.000000000000000000e+00
9.400000000000000000e+01,-6.155420344566491231e-01,0.000000000000000000e+00
9.500000000000000000e+01,1.605843537902481022e-01,0.000000000000000000e+00
9.600000000000000000e+01,5.125128622253054544e-01,0.000000000000000000e+00
9.700000000000000000e+01,-3.464217820024301786e-01,0.000000000000000000e+00
9.800000000000000000e+01,1.918397265214010217e-01,0.000000000000000000e+00
9.900000000000000000e+01,4.666768905583783267e-03,0.000000000000000000e+00
1.000000000000000000e+02,1.249493725997838478e+00,0.000000000000000000e+00
1.010000000000000000e+02,1.471552768290934898e-01,0.000000000000000000e+00
1.020000000000000000e+02,5.294579536455573665e-01,0.000000000000000000e+00
1.030000000000000000e+02,8.075147392601614849e-01,0.000000000000000000e+00
1.040000000000000000e+02,1.562544947693836450e+00,0.000000000000000000e+00
1.050000000000000000e+02,1.927377939170745291e+00,0.000000000000000000e+00
1.060000000000000000e+02,1.379009579256628981e-01,0.000000000000000000e+00
1.070000000000000000e+02,6.742303209354769677e-01,0.000000000000000000e+00
1.080000000000000000e+02,-4.624290351844909663e-01,0.000000000000000000e+00
1.090000000000000000e+02,-1.298848506966677752e+00,0.000000000000000000e+00
1.100000000000000000e+02,-3.240848977250913587e-01,0.000000000000000000e+00
1.110000000000000000e+02,-1.534165231677709018e+00,0.000000000000000000e+00
1.120000000000000000e+02,-2.181726981051560710e+00,0.000000000000000000e+00
1.130000000000000000e+02,-1.470779263467194342e+00,0.000000000000000000e+00
1.140000000000000000e+02,-2.085768653901372283e-01,0.000000000000000000e+00
1.150000000000000000e+02,-1.381827772462292048e+00,0.000000000000000000e+00
1.160000000000000000e+02,-1.785788846242287953e+00,0.000000000000000000e+00
1.170000000000000000e+02,-1.172049943529954730e+00,0.000000000000000000e+00
1.180000000000000000e+02,7.021285495574876023e-01,0.000000000000000000e+00
1.190000000000000000e+02,-6.868366149603792881e-01,1.000000000000000000e+00
1.200000000000000000e+02,-1.988734496957923259e+00,0.000000000000000000e+00
1.210000000000000000e+02,-4.488703225322709378e-01,0.000000000000000000e+00
1.220000000000000000e+02,1.940132822590434625e-01,0.000000000000000000e+00
1.230000000000000000e+02,-2.427581067469880838e-01,0.000000000000000000e+00
1.240000000000000000e+02,-8.078786987722041957e-01,0.000000000000000000e+00
1.250000000000000000e+02,7.441109067339970462e-01,0.000000000000000000e+00
1.260000000000000000e+02,-5.004996322014680921e-01,0.000000000000000000e+00
1.270000000000000000e+02,-4.903005687035373317e-01,0.000000000000000000e+00
1.280000000000000000e+02,-3.960005365625825502e-01,0.000000000000000000e+00
1.290000000000000000e+02,5.494176977434094278e-01,0.000000000000000000e+00
1.300000000000000000e+02,2.128331416083529548e-01,0.000000000000000000e+00
1.310000000000000000e+02,6.645286833083666189e-02,0.000000000000000000e+00
1.320000000000000000e+02,-7.566852508454723347e-01,0.000000000000000000e+00
1.330000000000000000e+02,1.549788227678245700e-01,0.000000000000000000e+00
1.340000000000000000e+02,-2.056997909615147502e-01,0.000000000000000000e+00
1.350000000000000000e+02,5.495526439110863803e-01,0.000000000000000000e+00
1.360000000000000000e+02,8.392650718898968520e-01,0.000000000000000000e+00
1.370000000000000000e+02,-1.106257705479213177e-01,0.000000000000000000e+00
1.380000000000000000e+02,1.678453601533619055e-01,0.000000000000000000e+00
1.390000000000000000e+02,1.444117242124110245e-01,0.000000000000000000e+00
1.400000000000000000e+02,-1.867572143908197424e-01,0.000000000000000000e+00
1.410000000000000000e+02,1.156998116769356821e+00,0.000000000000000000e+00
1.420000000000000000e+02,-2.142205947900910346e-01,0.000000000000000000e+00
1.430000000000000000e+02,-4.661638296564550310e-01,0.000000000000000000e+00
1.440000000000000000e+02,-1.840639723473861677e-01,0.000000000000000000e+00
1.450000000000000000e+02,3.097574909903250129e-01,0.000000000000000000e+00
1.460000000000000000e+02,1.856305424430552131e+00,0.000000000000000000e+00
1.470000000000000000e+02,1.532867031632421773e+00,0.000000000000000000e+00
1.480000000000000000e+02,1.821110265851842991e+00,0.000000000000000000e+00
1.490000000000000000e+02,1.681956834108090382e+00,0.000000000000000000e+00
1.500000000000000000e+02,1.357015933798988216e+00,0.000000000000000000e+00
1.510000000000000000e+02,-2.629545279825467041e-01,1.000000000000000000e+00
1.520000000000000000e+02,-1.353592600511445587e+00,0.000000000000000000e+00
1.530000000000000000e+02,-5.237280420682928206e-01,0.000000000000000000e+00
1.540000000000000000e+02,5.565649990583932533e-02,0.000000000000000000e+00
1.550000000000000000e+02,-8.140340721828271953e-01,0.000000000000000000e+00
1.560000000000000000e+02,4.796633977123107573e-02,0.000000000000000000e+00
1.570000000000000000e+02,9.514106090838319041e-01,0.000000000000000000e+00
1.580000000000000000e+02,-1.035221593201781420e+00,0.000000000000000000e+00
1.590000000000000000e+02,-7.869532943310498796e-01,0.000000000000000000e+00
1.600000000000000000e+02,7.861946663787693357e-01,0.000000000000000000e+00
1.610000000000000000e+02,1.358705735824269345e+00,0.000000000000000000e+00
1.620000000000000000e+02,-8.485906692805099683e-01,0.000000000000000000e+00
1.630000000000000000e+02,7.889740417565858088e-01,0.000000000000000000e+00
1.640000000000000000e+02,1.383410978309445261e+00,0.000000000000000000e+00
1.650000000000000000e+02,2.157149505460288275e+00,0.000000000000000000e+00
1.660000000000000000e+02,-2.855676215051217715e-01,0.000000000000000000e+00
1.670000000000000000e+02,1.080211298928492603e-01,0.000000000000000000e+00
1.680000000000000000e+02,5.662961359767136882e-01,0.000000000000000000e+00
1.690000000000000000e+02,-7.139885130132447300e-01,0.000000000000000000e+00
1.700000000000000000e+02,-2.378624512665166613e+00,0.000000000000000000e+00
1.710000000000000000e+02,-6.177704039516305201e-01,0.000000000000000000e+00
1.720000000000000000e+02,-1.148243366180153657e+00,0.000000000000000000e+00
1.730000000000000000e+02,-7.025169831720368130e-01,0.000000000000000000e+00
1.740000000000000000e+02,-1.500932245053305580e+00,0.000000000000000000e+00
1.750000000000000000e+02,-3.907238538075549772e-02,0.000000000000000000e+00
1.760000000000000000e+02,-1.238484278611708955e+00,0.000000000000000000e+00
1.770000000000000000e+02,-7.598457992585054832e-01,0.000000000000000000e+00
1.780000000000000000e+02,-8.683299345346754405e-01,0.000000000000000000e+00
1.790000000000000000e+02,2.260204694995588681e-01,0.000000000000000000e+00
1.800000000000000000e+02,-7.615190383624983461e-01,0.000000000000000000e+00
1.810000000000000000e+02,-5.710963723408351012e-01,0.000000000000000000e+00
1.820000000000000000e+02,-1.292705346503257025e-01,0.000000000000000000e+00
1.830000000000000000e+02,-4.397666382592342327e-01,0.000000000000000000e+00
1.840000000000000000e+02,3.612457617826482226e-01,0.000000000000000000e+00
1.850000000000000000e+02,6.905569344563171619e-01,0.000000000000000000e+00
1.860000000000000000e+02,-1.518404281100710129e+00,0.000000000000000000e+00
1.870000000000000000e+02,4.334476610169739619e-01,1.000000000000000000e+00
1.880000000000000000e+02,6.124346695862599166e-01,0.000000000000000000e+00
1.890000000000000000e+02,2.125872103433688598e-01,0.000000000000000000e+00
1.900000000000000000e+02,-6.981057156156359467e-01,0.000000000000000000e+00
1.910000000000000000e+02,5.235065297746948065e-01,0.000000000000000000e+00
1.920000000000000000e+02,-1.389475372185008661e-01,0.000000000000000000e+00
1.930000000000000000e+02,5.596252907663092913e-01,0.000000000000000000e+00
1.940000000000000000e+02,-4.153308132792305624e-02,0.000000000000000000e+00
1.950000000000000000e+02,6.378752382894817829e-01,0.000000000000000000e+00
1.960000000000000000e+02,-2.043146380568146292e-01,0.000000000000000000e+00
1.970000000000000000e+02,2.740634366093108731e-01,0.000000000000000000e+00
1.980000000000000000e+02,1.579010764709425363e-01,0.000000000000000000e+00
1.990000000000000000e+02,8.070067319700802155e-01,0.000000000000000000e+00
2.000000000000000000e+02,8.034101285465641284e-01,0.000000000000000000e+00
2.010000000000000000e+02,-9.680084867938021365e-01,0.000000000000000000e+00
2.020000000000000000e+02,-2.284039406451939674e-02,0.000000000000000000e+00
2.030000000000000000e+02,4.771577704180257444e-03,0.000000000000000000e+00
2.040000000000000000e+02,-1.640573220986256964e-01,0.000000000000000000e+00
2.050000000000000000e+02,1.562653766577233538e+00,0.000000000000000000e+00
2.060000000000000000e+02,8.064043320622091837e-01,0.000000000000000000e+00
2.070000000000000000e+02,1.642757267032260993e+00,0.000000000000000000e+00
2.080000000000000000e+02,2.596769261468895529e+00,0.000000000000000000e+00
2.090000000000000000e+02,1.724786555405823707e+00,0.000000000000000000e+00
2.100000000000000000e+02,2.605714253264627134e-01,0.000000000000000000e+00
2.110000000000000000e+02,-5.890789016944917300e-01,0.000000000000000000e+00
2.120000000000000000e+02,-4.734692792311063769e-01,0.000000000000000000e+00
2.130000000000000000e+02,-5.523716910932335855e-01,0.000000000000000000e+00
2.140000000000000000e+02,-7.471754363899953122e-02,0.000000000000000000e+00
2.150000000000000000e+02,-1.991226242945375036e-01,0.000000000000000000e+00
2.160000000000000000e+02,4.971379650218286234e-02,0.000000000000000000e+00
2.170000000000000000e+02,-1.101579614129904877e-01,0.000000000000000000e+00
2.180000000000000000e+02,-2.901940810973135387e-01,0.000000000000000000e+00
2.190000000000000000e+02,-2.821637338330743594e-01,0.000000000000000000e+00
2.200000000000000000e+02,5.844100768110590538e-01,0.000000000000000000e+00
2.210000000000000000e+02,7.115240758673639920e-01,0.000000000000000000e+00
2.220000000000000000e+02,7.521681718863877375e-01,0.000000000000000000e+00
2.230000000000000000e+02,8.345531401954884299e-01,0.000000000000000000e+00
2.240000000000000000e+02,7.567898042689031879e-01,0.000000000000000000e+00
2.250000000000000000e+02,1.313709856024838807e+00,0.000000000000000000e+00
2.260000000000000000e+02,1.169035649326980897e+00,0.000000000000000000e+00
2.270000000000000000e+02,-2.621966807875153460e-01,1.000000000000000000e+00
2.280000000000000000e+02,-8.155724973913720532e-01,0.000000000000000000e+00
2.290000000000000000e+02,-1.695019737206699961e-01,0.000000000000000000e+00
2.300000000000000000e+02,-1.743671740925724523e+00,0.000000000000000000e+00
2.310000000000000000e+02,-1.694946801221702604e+00,0.000000000000000000e+00
2.320000000000000000e+02,-1.119728589707869260e+00,0.000000000000000000e+00
2.330000000000000000e+02,-6.045262957723119834e-01,0.000000000000000000e+00
2.340000000000000000e+02,-2.159162807945251394e+00,0.000000000000000000e+00
2.350000000000000000e+02,-4.455704988419766921e-01,0.000000000000000000e+00
2.360000000000000000e+02,-3.510842941736291301e-01,0.000000000000000000e+00
2.370000000000000000e+02,-1.429921250573501057e+00,0.000000000000000000e+00
2.380000000000000000e+02,-1.120418460431526375e+00,0.000000000000000000e+00
2.390000000000000000e+02,-4.855613892896756129e-02,0.000000000000000000e+00
2.400000000000000000e+02,-1.763341487625645354e-01,0.000000000000000000e+00
2.410000000000000000e+02,-1.074808222734546570e+00,0.000000000000000000e+00
2.420000000000000000e+02,-7.052210661535995850e-01,0.000000000000000000e+00
2.430000000000000000e+02,-1.167602143934005354e-01,0.000000000000000000e+00
2.440000000000000000e+02,1.448195444871340776e+00,0.000000000000000000e+00
2.450000000000000000e+02,-1.484668175059953965e+00,0.000000000000000000e+00
2.460000000000000000e+02,-6.075605648388975322e-01,0.000000000000000000e+00
2.470000000000000000e+02,4.105801471518475965e-01,0.000000000000000000e+00
2.480000000000000000e+02,3.169455558816800522e-01,0.000000000000000000e+00
2.490000000000000000e+02,-6.987697081253202436e-01,0.000000000000000000e+00
2.500000000000000000e+02,7.802761889924271221e-01,0.000000000000000000e+00
2.510000000000000000e+02,-2.087719420303695839e-01,0.000000000000000000e+00
2.520000000000000000e+02,-6.013037764554370890e-01,0.000000000000000000e+00
2.530000000000000000e+02,4.839538796316956160e-01,0.000000000000000000e+00
2.540000000000000000e+02,1.145159455370294177e+00,0.000000000000000000e+00
2.550000000000000000e+02,-4.190663896509899122e-01,0.000000000000000000e+00
2.560000000000000000e+02,-2.775751107933862039e-01,0.000000000000000000e+00
2.570000000000000000e+02,5.827236313911341448e-01,0.000000000000000000e+00
2.580000000000000000e+02,2.370386060300475328e-01,0.000000000000000000e+00
2.590000000000000000e+02,1.326594494882931685e-01,0.000000000000000000e+00
2.600000000000000000e+02,-1.209200898420315362e-01,0.000000000000000000e+00
2.610000000000000000e+02,1.173977728463890147e+00,0.000000000000000000e+00
2.620000000000000000e+02,-6.528422998970868640e-01,0.000000000000000000e+00
2.630000000000000000e+02,-1.065006406520499160e+00,0.000000000000000000e+00
2.640000000000000000e+02,-3.560816411758284117e-01,0.000000000000000000e+00
2.650000000000000000e+02,2.074107668479372446e+00,0.000000000000000000e+00
2.660000000000000000e+02,9.663689750505931597e-01,0.000000000000000000e+00
2.670000000000000000e+02,1.224876104735431737e+00,0.000000000000000000e+00
2.680000000000000000e+02,2.375028298853459674e+00,0.000000000000000000e+00
2.690000000000000000e+02,2.005822429089382908e+00,0.000000000000000000e+00
2.700000000000000000e+02,-1.771545624893004212e-01,1.000000000000000000e+00
2.710000000000000000e+02,-1.686326276669067203e+00,0.000000000000000000e+00
2.720000000000000000e+02,-1.970324770819594506e-01,0.000000000000000000e+00
2.730000000000000000e+02,-1.829950426602806879e-01,0.000000000000000000e+00
2.740000000000000000e+02,9.141267137508800322e-02,0.000000000000000000e+00
2.750000000000000000e+02,-6.030610591733245318e-01,0.000000000000000000e+00
2.760000000000000000e+02,-5.984937162476366285e-02,0.000000000000000000e+00
2.770000000000000000e+02,-2.405468663443693367e-01,0.000000000000000000e+00
2.780000000000000000e+02,1.733601832283352684e-01,0.000000000000000000e+00
2.790000000000000000e+02,3.445414111725515482e-01,0.000000000000000000e+00
2.800000000000000000e+02,3.886601386673232406e-01,0.000000000000000000e+00
2.810000000000000000e+02,4.817221900240314936e-01,0.000000000000000000e+00
2.820000000000000000e+02,5.142802288214221029e-01,0.000000000000000000e+00
2.830000000000000000e+02,1.461268666617460577e+00,0.000000000000000000e+00
2.840000000000000000e+02,9.424145311311070694e-01,0.000000000000000000e+00
2.850000000000000000e+02,1.368391283060290009e+00,0.000000000000000000e+00
2.860000000000000000e+02,3.990586812479341439e-01,0.000000000000000000e+00
2.870000000000000000e+02,-2.148804841562397192e-02,0.000000000000000000e+00
2.880000000000000000e+02,-6.452976337582390087e-01,0.000000000000000000e+00
2.890000000000000000e+02,-1.291693323080387312e+00,0.000000000000000000e+00
2.900000000000000000e+02,-1.184016185146850253e+00,0.000000000000000000e+00
2.910000000000000000e+02,-7.868146857488289569e-01,0.000000000000000000e+00
2.920000000000000000e+02,-1.745938298108681064e+00,0.000000000000000000e+00
2.930000000000000000e+02,-5.456082766860873567e-01,0.000000000000000000e+00
2.940000000000000000e+02,-5.969950130660831578e-01,0.000000000000000000e+00
2.950000000000000000e+02,-1.285515234143089547e+00,0.000000000000000000e+00
2.960000000000000000e+02,-1.197512600348475287e+00,0.000000000000000000e+00
2.970000000000000000e+02,-6.350503442434239920e-01,0.000000000000000000e+00
2.980000000000000000e+02,-8.093547240898493200e-01,0.000000000000000000e+00
2.990000000000000000e+02,-6.590881082864984419e-01,0.000000000000000000e+00
3.000000000000000000e+02,3.375116364048522111e-01,0.000000000000000000e+00
3.010000000000000000e+02,-7.029405952330178842e-01,0.000000000000000000e+00
3.020000000000000000e+02,-1.114354845147281781e+00,0.000000000000000000e+00
3.030000000000000000e+02,8.704346301888273851e-01,1.000000000000000000e+00
3.040000000000000000e+02,-3.497919634997816440e-01,0.000000000000000000e+00
3.050000000000000000e+02,-2.712238342260246404e-01,0.000000000000000000e+00
3.060000000000000000e+02,1.993639293722007377e-01,0.000000000000000000e+00
3.070000000000000000e+02,7.420162621850683038e-03,0.000000000000000000e+00
3.080000000000000000e+02,-5.403244295678769626e-01,0.000000000000000000e+00
3.090000000000000000e+02,-2.410179792633983797e-01,0.000000000000000000e+00
3.100000000000000000e+02,6.604444154359211394e-01,0.000000000000000000e+00
3.110000000000000000e+02,-2.632972037768660512e-01,0.000000000000000000e+00
3.120000000000000000e+02,3.200872186512905282e-01,0.000000000000000000e+00
3.130000000000000000e+02,6.082403542100467408e-01,0.000000000000000000e+00
3.140000000000000000e+02,6.066963740053297194e-01,0.000000000000000000e+00
3.150000000000000000e+02,-5.187164941690005637e-01,0.000000000000000000e+00
3.160000000000000000e+02,1.345694278213692419e-01,0.000000000000000000e+00
3.170000000000000000e+02,4.901185392097370253e-01,0.000000000000000000e+00
3.180000000000000000e+02,4.476363599160700368e-01,0.000000000000000000e+00
3.190000000000000000e+02,3.487929038579617447e-01,0.000000000000000000e+00
3.200000000000000000e+02,-2.499085996907737806e-01,0.000000000000000000e+00
3.210000000000000000e+02,5.553721044931333450e-01,0.000000000000000000e+00
3.220000000000000000e+02,3.176611618915037849e-01,0.000000000000000000e+00
3.230000000000000000e+02,1.220830089762850179e-01,0.000000000000000000e+00
3.240000000000000000e+02,3.838166333927631874e-02,0.000000000000000000e+00
3.250000000000000000e+02,7.668073160680379807e-01,0.000000000000000000e+00
3.260000000000000000e+02,9.462357735694155725e-01,0.000000000000000000e+00
3.270000000000000000e+02,2.305168744632767552e+00,0.000000000000000000e+00
3.280000000000000000e+02,2.583099938339375345e+00,0.000000000000000000e+00
3.290000000000000000e+02,5.288746267283324087e-01,0.000000000000000000e+00
3.300000000000000000e+02,-8.548226483996177461e-01,0.000000000000000000e+00
3.310000000000000000e+02,-4.989527655098412867e-02,0.000000000000000000e+00
3.320000000000000000e+02,-4.882567234559342939e-02,0.000000000000000000e+00
3.330000000000000000e+02,-4.239568397541421119e-02,0.000000000000000000e+00
3.340000000000000000e+02,-1.070948406034972211e-01,0.000000000000000000e+00
3.350000000000000000e+02,-3.348166746625794721e-01,0.000000000000000000e+00
3.360000000000000000e+02,-2.065354410310861477e-02,0.000000000000000000e+00
3.370000000000000000e+02,7.812675275112656026e-01,0.000000000000000000e+00
3.380000000000000000e+02,2.760193512045631126e-01,0.000000000000000000e+00
3.390000000000000000e+02,-2.324826260960334567e-01,0.000000000000000000e+00
3.400000000000000000e+02,6.844112901419113770e-01,0.000000000000000000e+00
3.410000000000000000e+02,7.009777385958773088e-01,0.000000000000000000e+00
3.420000000000000000e+02,1.021258517710345259e+00,0.000000000000000000e+00
3.430000000000000000e+02,8.969607682363294199e-01,0.000000000000000000e+00
3.440000000000000000e+02,1.152841254551669969e+00,0.000000000000000000e+00
3.450000000000000000e+02,1.130426335152571182e+00,0.000000000000000000e+00
3.460000000000000000e+02,9.790223519979017464e-02,0.000000000000000000e+00
3.470000000000000000e+02,-5.384303191372379338e-01,1.000000000000000000e+00
3.480000000000000000e+02,-8.922474676620868461e-01,0.000000000000000000e+00
3.490000000000000000e+02,-1.110534115163559044e+00,0.000000000000000000e+00
3.500000000000000000e+02,-1.973684083934499567e+00,0.000000000000000000e+00
3.510000000000000000e+02,-1.407040383908261472e+00,0.000000000000000000e+00
3.520000000000000000e+02,-9.837077829595191059e-01,0.000000000000000000e+00
3.530000000000000000e+02,-1.028558119429591855e+00,0.000000000000000000e+00
3.540000000000000000e+02,-2.026458180894941119e+00,0.000000000000000000e+00
3.550000000000000000e+02,-1.148638240856753923e+00,0.000000000000000000e+00
3.560000000000000000e+02,-7.707984992897544130e-01,0.000000000000000000e+00
3.570000000000000000e+02,-5.932584404421442636e-01,0.000000000000000000e+00
3.580000000000000000e+02,-7.266527539225223764e-01,0.000000000000000000e+00
3.590000000000000000e+02,-1.205926943690826869e+00,0.000000000000000000e+00
3.600000000000000000e+02,-5.552604433231097536e-01,0.000000000000000000e+00
3.610000000000000000e+02,-5.009418289386583512e-01,0.000000000000000000e+00
3.620000000000000000e+02,4.155372871019510361e-01,0.000000000000000000e+00
3.630000000000000000e+02,-6.609921543722609982e-01,0.000000000000000000e+00
3.640000000000000000e+02,-4.214332846354320594e-01,0.000000000000000000e+00
3.650000000000000000e+02,-2.284845039756336904e-01,0.000000000000000000e+00
3.660000000000000000e+02,1.026556355982002566e+00,0.000000000000000000e+00
3.670000000000000000e+02,-3.092138399735658849e-01,0.000000000000000000e+00
3.680000000000000000e+02,-5.305313578854997658e-01,0.000000000000000000e+00
3.690000000000000000e+02,1.953677449903507835e-01,0.000000000000000000e+00
3.700000000000000000e+02,2.003708792216055135e-02,0.000000000000000000e+00
3.710000000000000000e+02,5.907397176120634530e-01,0.000000000000000000e+00
3.720000000000000000e+02,1.083108746021712865e-01,0.000000000000000000e+00
3.730000000000000000e+02,-2.935525829808224296e-01,0.000000000000000000e+00
3.740000000000000000e+02,2.393446662631439070e-01,0.000000000000000000e+00
3.750000000000000000e+02,4.886994374612695924e-01,0.000000000000000000e+00
3.760000000000000000e+02,2.503450340165219168e-01,0.000000000000000000e+00
3.770000000000000000e+02,2.432558392081435872e-01,0.000000000000000000e+00
3.780000000000000000e+02,-1.533312096816339953e-01,0.000000000000000000e+00
3.790000000000000000e+02,2.986241121671139309e-01,0.000000000000000000e+00
3.800000000000000000e+02,6.743333577271195534e-01,0.000000000000000000e+00
3.810000000000000000e+02,3.991416759800489600e-01,0.000000000000000000e+00
3.820000000000000000e+02,-3.104608551304428032e-01,0.000000000000000000e+00
3.830000000000000000e+02,-4.888638906249015981e-01,0.000000000000000000e+00
3.840000000000000000e+02,1.188257333397184867e+00,0.000000000000000000e+00
3.850000000000000000e+02,1.321756414829226678e+00,0.000000000000000000e+00
3.860000000000000000e+02,1.570117576032833862e+00,0.000000000000000000e+00
3.870000000000000000e+02,2.429092254515396121e+00,0.000000000000000000e+00
3.880000000000000000e+02,1.629561915669068162e+00,0.000000000000000000e+00
3.890000000000000000e+02,1.369870866785415642e-01,0.000000000000000000e+00
3.900000000000000000e+02,-6.758268477491318205e-01,1.000000000000000000e+00
3.910000000000000000e+02,-4.888356275194400413e-01,0.000000000000000000e+00
3.920000000000000000e+02,-7.009796646683525978e-01,0.000000000000000000e+00
3.930000000000000000e+02,-1.086221884286661332e+00,0.000000000000000000e+00
3.940000000000000000e+02,2.269453872792996652e-01,0.000000000000000000e+00
3.950000000000000000e+02,1.879013183059627390e-01,0.000000000000000000e+00
3.960000000000000000e+02,-2.873811518088155714e-01,0.000000000000000000e+00
3.970000000000000000e+02,2.458490685589697147e-02,0.000000000000000000e+00
3.980000000000000000e+02,3.669519745519562309e-02,0.000000000000000000e+00
3.990000000000000000e+02,8.246263172591662416e-01,0.000000000000000000e+00
4.000000000000000000e+02,1.138945079022416207e-01,0.000000000000000000e+00
4.010000000000000000e+02,1.144614086795565644e+00,0.000000000000000000e+00
4.020000000000000000e+02,8.615750658966311315e-01,0.000000000000000000e+00
4.030000000000000000e+02,1.261061886121120690e+00,0.000000000000000000e+00
4.040000000000000000e+02,1.646131895419754576e+00,0.000000000000000000e+00
4.050000000000000000e+02,7.375493080973395399e-01,0.000000000000000000e+00
4.060000000000000000e+02,1.411662136505057938e-02,0.000000000000000000e+00
4.070000000000000000e+02,-5.343441096833109194e-01,0.000000000000000000e+00
4.080000000000000000e+02,-9.815742368194660949e-01,0.000000000000000000e+00
4.090000000000000000e+02,-6.647185624492926159e-01,0.000000000000000000e+00
4.100000000000000000e+02,-1.291434482003241735e+00,0.000000000000000000e+00
4.110000000000000000e+02,-1.640211410026433780e+00,0.000000000000000000e+00
4.120000000000000000e+02,-9.411204583475391017e-01,0.000000000000000000e+00
4.130000000000000000e+02,-1.051331417095062282e+00,0.000000000000000000e+00
4.140000000000000000e+02,-4.669930051332454868e-01,0.000000000000000000e+00
4.150000000000000000e+02,-9.763323898198748019e-01,0.000000000000000000e+00
4.160000000000000000e+02,-1.024647197163828682e+00,0.000000000000000000e+00
4.170000000000000000e+02,-8.128908604603319876e-01,0.000000000000000000e+00
4.180000000000000000e+02,-4.226486303946930256e-01,0.000000000000000000e+00
4.190000000000000000e+02,-3.894791804145682490e-01,0.000000000000000000e+00
4.200000000000000000e+02,-6.433317732345036344e-01,0.000000000000000000e+00
4.210000000000000000e+02,4.955860524958502489e-02,0.000000000000000000e+00
4.220000000000000000e+02,-7.420127415820618744e-01,0.000000000000000000e+00
4.230000000000000000e+02,5.529319215746819616e-01,0.000000000000000000e+00
4.240000000000000000e+02,1.797878778657542309e-01,1.000000000000000000e+00
4.250000000000000000e+02,-5.243055678103439865e-01,0.000000000000000000e+00
4.260000000000000000e+02,-2.399133093973368838e-02,0.000000000000000000e+00
4.270000000000000000e+02,-1.557741357162606977e-01,0.000000000000000000e+00
4.280000000000000000e+02,-1.458952322428448967e-01,0.000000000000000000e+00
4.290000000000000000e+02,-1.318023599806366353e-01,0.000000000000000000e+00
4.300000000000000000e+02,-1.021664448499236405e-01,0.000000000000000000e+00
4.310000000000000000e+02,3.392635286307683629e-01,0.000000000000000000e+00
4.320000000000000000e+02,6.687929559431793347e-01,0.000000000000000000e+00
4.330000000000000000e+02,-1.799703837759777658e-01,0.000000000000000000e+00
4.340000000000000000e+02,-1.832757645220917109e-02,0.000000000000000000e+00
4.350000000000000000e+02,9.422199348692106291e-02,0.000000000000000000e+00
4.360000000000000000e+02,4.777612681353148871e-01,0.000000000000000000e+00
4.370000000000000000e+02,3.690569990911107823e-01,0.000000000000000000e+00
4.380000000000000000e+02,1.501239564208503574e-01,0.000000000000000000e+00
4.390000000000000000e+02,5.578760787781579245e-01,0.000000000000000000e+00
4.400000000000000000e+02,2.096184944015200835e-01,0.000000000000000000e+00
4.410000000000000000e+02,-4.185509740103349197e-01,0.000000000000000000e+00
4.420000000000000000e+02,-4.994802760597084022e-03,0.000000000000000000e+00
4.430000000000000000e+02,3.018597973247502675e-02,0.000000000000000000e+00
4.440000000000000000e+02,8.322009313402594088e-01,0.000000000000000000e+00
4.450000000000000000e+02,1.509927762266226381e+00,0.000000000000000000e+00
4.460000000000000000e+02,2.033118048810882428e+00,0.000000000000000000e+00
4.470000000000000000e+02,2.579114425491394247e+00,0.000000000000000000e+00
4.480000000000000000e+02,8.987515212805088360e-01,0.000000000000000000e+00
4.490000000000000000e+02,6.840485918641185659e-02,0.000000000000000000e+00
4.500000000000000000e+02,-6.667306658897501626e-01,0.000000000000000000e+00
4.510000000000000000e+02,-4.361213802683615581e-01,0.000000000000000000e+00
4.520000000000000000e+02,-6.380989149578095709e-01,0.000000000000000000e+00
4.530000000000000000e+02,-2.628136515707539256e-01,0.000000000000000000e+00
4.540000000000000000e+02,-1.826057476660491452e-01,0.000000000000000000e+00
4.550000000000000000e+02,-4.894040347208803987e-01,0.000000000000000000e+00
4.560000000000000000e+02,3.786642415842648990e-02,0.000000000000000000e+00
4.570000000000000000e+02,-1.021039845601954404e-01,0.000000000000000000e+00
4.580000000000000000e+02,3.611664598332492981e-01,0.000000000000000000e+00
4.590000000000000000e+02,7.346673902938234690e-02,0.000000000000000000e+00
4.600000000000000000e+02,6.322629258314113043e-01,0.000000000000000000e+00
4.610000000000000000e+02,9.510556657220581300e-01,0.000000000000000000e+00
4.620000000000000000e+02,1.008220405415668708e+00,0.000000000000000000e+00
4.630000000000000000e+02,6.284654032187607653e-01,0.000000000000000000e+00
4.640000000000000000e+02,1.275243286671108756e+00,0.000000000000000000e+00
4.650000000000000000e+02,5.359958412251372151e-01,0.000000000000000000e+00
4.660000000000000000e+02,-2.919757300256553001e-01,0.000000000000000000e+00
4.670000000000000000e+02,-8.845312727018704857e-01,1.000000000000000000e+00
4.680000000000000000e+02,-1.398204897243832345e+00,0.000000000000000000e+00
4.690000000000000000e+02,-1.318494608876624952e+00,0.000000000000000000e+00
4.700000000000000000e+02,-2.035934634373777641e+00,0.000000000000000000e+00
4.710000000000000000e+02,-9.380303156393435815e-01,0.000000000000000000e+00
4.720000000000000000e+02,-6.826724213039496725e-01,0.000000000000000000e+00
4.730000000000000000e+02,-1.459670579019773040e+00,0.000000000000000000e+00
4.740000000000000000e+02,-1.367670317281040049e+00,0.000000000000000000e+00
4.750000000000000000e+02,-4.241400756906367753e-01,0.000000000000000000e+00
4.760000000000000000e+02,-6.647316750722621626e-01,0.000000000000000000e+00
4.770000000000000000e+02,-1.217916340024092658e+00,0.000000000000000000e+00
4.780000000000000000e+02,-6.912144932278484477e-01,0.000000000000000000e+00
4.790000000000000000e+02,-4.077140230467207194e-01,0.000000000000000000e+00
4.800000000000000000e+02,-1.595550382702544123e-01,0.000000000000000000e+00
4.810000000000000000e+02,-4.448328083714727654e-01,0.000000000000000000e+00
4.820000000000000000e+02,-2.615746979338894329e-01,0.000000000000000000e+00
4.830000000000000000e+02,-2.135432518042937600e-01,0.000000000000000000e+00
4.840000000000000000e+02,-3.079794126811551402e-01,0.000000000000000000e+00
4.850000000000000000e+02,5.710817491423297865e-01,0.000000000000000000e+00
4.860000000000000000e+02,7.700912411543557601e-02,0.000000000000000000e+00
4.870000000000000000e+02,-8.281032130079425402e-01,0.000000000000000000e+00
4.880000000000000000e+02,5.567354442414432919e-02,0.000000000000000000e+00
4.890000000000000000e+02,4.390717389999867493e-01,0.000000000000000000e+00
4.900000000000000000e+02,3.152799880710461244e-01,0.000000000000000000e+00
4.910000000000000000e+02,7.692237173655037822e-04,0.000000000000000000e+00
4.920000000000000000e+02,5.240414429422317610e-01,0.000000000000000000e+00
4.930000000000000000e+02,-2.021673623965503097e-01,0.000000000000000000e+00
4.940000000000000000e+02,7.302275409286855812e-01,0.000000000000000000e+00
4.950000000000000000e+02,-1.233790367680515643e-01,0.000000000000000000e+00
4.960000000000000000e+02,7.347978398102700259e-01,0.000000000000000000e+00
4.970000000000000000e+02,1.015792280850430274e+00,0.000000000000000000e+00
4.980000000000000000e+02,-7.006148768312101538e-01,0.000000000000000000e+00
4.990000000000000000e+02,6.090772133630014684e-01,0.000000000000000000e+00
5.000000000000000000e+02,7.283112796933001454e-02,0.000000000000000000e+00
5.010000000000000000e+02,-1.645971196378301638e-01,0.000000000000000000e+00
5.020000000000000000e+02,-2.375852013540915575e-01,0.000000000000000000e+00
5.030000000000000000e+02,8.280331417060886601e-01,0.000000000000000000e+00
5.040000000000000000e+02,8.019729610653497653e-01,0.000000000000000000e+00
5.050000000000000000e+02,1.524936664986595636e+00,0.000000000000000000e+00
5.060000000000000000e+02,2.194718762910626619e+00,0.000000000000000000e+00
5.070000000000000000e+02,2.392593706959227795e+00,0.000000000000000000e+00
5.080000000000000000e+02,-2.635540857461352027e-01,1.000000000000000000e+00
5.090000000000000000e+02,-3.673668297850062880e-01,0.000000000000000000e+00
5.100000000000000000e+02,1.867146554627906185e-01,0.000000000000000000e+00
5.110000000000000000e+02,-3.915162870665911954e-01,0.000000000000000000e+00
5.120000000000000000e+02,-4.452525644677237104e-01,0.000000000000000000e+00
5.130000000000000000e+02,5.309167615368050042e-01,0.000000000000000000e+00
5.140000000000000000e+02,-2.555939394052246794e-01,0.000000000000000000e+00
5.150000000000000000e+02,3.896224457491115345e-01,0.000000000000000000e+00
5.160000000000000000e+02,-1.010167688133091490e-01,0.000000000000000000e+00
5.170000000000000000e+02,-1.220326915940908863e-01,0.000000000000000000e+00
5.180000000000000000e+02,2.967801068700471334e-01,0.000000000000000000e+00
5.190000000000000000e+02,7.552703641706066673e-01,0.000000000000000000e+00
5.200000000000000000e+02,1.051004167590715799e+00,0.000000000000000000e+00
5.210000000000000000e+02,9.919190419023603544e-01,0.000000000000000000e+00
5.220000000000000000e+02,1.063355582866122306e+00,0.000000000000000000e+00
5.230000000000000000e+02,1.077314084067788613e+00,0.000000000000000000e+00
5.240000000000000000e+02,1.381177063293393514e+00,0.000000000000000000e+00
5.250000000000000000e+02,5.767557924647771506e-01,0.000000000000000000e+00
5.260000000000000000e+02,-5.983766880594522108e-01,0.000000000000000000e+00
5.270000000000000000e+02,-9.326710353884590798e-01,0.000000000000000000e+00
5.280000000000000000e+02,-1.504008463047581623e+00,0.000000000000000000e+00
5.290000000000000000e+02,-1.157540352535627814e+00,0.000000000000000000e+00
5.300000000000000000e+02,-1.611670755996729376e+00,0.000000000000000000e+00
5.310000000000000000e+02,-7.413987386476443842e-01,0.000000000000000000e+00
5.320000000000000000e+02,-1.267093797780784348e+00,0.000000000000000000e+00
5.330000000000000000e+02,-1.119956892440767682e+00,0.000000000000000000e+00
5.340000000000000000e+02,-7.841834352536664055e-01,0.000000000000000000e+00
5.350000000000000000e+02,-8.317479990890984665e-01,0.000000000000000000e+00
5.360000000000000000e+02,-1.076972793989175115e+00,0.000000000000000000e+00
5.370000000000000000e+02,-6.575004066632170741e-01,0.000000000000000000e+00
5.380000000000000000e+02,-7.422445104563702989e-01,0.000000000000000000e+00
5.390000000000000000e+02,-3.929249054544181607e-01,0.000000000000000000e+00
5.400000000000000000e+02,-4.477635141530508234e-01,0.000000000000000000e+00
5.410000000000000000e+02,1.827488436836107455e-01,0.000000000000000000e+00
5.420000000000000000e+02,-4.062124279564992002e-01,0.000000000000000000e+00
5.430000000000000000e+02,-3.926216798477384362e-01,0.000000000000000000e+00
5.440000000000000000e+02,1.777497841264528700e-01,0.000000000000000000e+00
5.450000000000000000e+02,-5.026857202326173030e-02,0.000000000000000000e+00
5.460000000000000000e+02,-6.108517487021847270e-01,0.000000000000000000e+00
5.470000000000000000e+02,9.906435769665211666e-02,0.000000000000000000e+00
5.480000000000000000e+02,4.103153845736443039e-01,0.000000000000000000e+00
5.490000000000000000e+02,-1.500879615527259126e-02,0.000000000000000000e+00
5.500000000000000000e+02,9.142968603379758585e-02,0.000000000000000000e+00
5.510000000000000000e+02,-8.994954197829768683e-02,0.000000000000000000e+00
5.520000000000000000e+02,5.788825014884895204e-01,0.000000000000000000e+00
5.530000000000000000e+02,7.261121452660875830e-01,0.000000000000000000e+00
5.540000000000000000e+02,-5.425701651709402551e-01,0.000000000000000000e+00
5.550000000000000000e+02,1.684266336667537001e-01,0.000000000000000000e+00
5.560000000000000000e+02,8.100877798532304386e-01,0.000000000000000000e+00
5.570000000000000000e+02,-3.342563519287020113e-02,0.000000000000000000e+00
5.580000000000000000e+02,1.556148742943351537e-01,0.000000000000000000e+00
5.590000000000000000e+02,2.485253713340486170e-01,0.000000000000000000e+00
5.600000000000000000e+02,7.009725213699068147e-02,0.000000000000000000e+00
5.610000000000000000e+02,2.972799263252920987e-01,0.000000000000000000e+00
5.620000000000000000e+02,-1.715916740602092816e-01,0.000000000000000000e+00
5.630000000000000000e+02,4.868623069512121315e-01,0.000000000000000000e+00
5.640000000000000000e+02,5.688967688006827395e-01,0.000000000000000000e+00
5.650000000000000000e+02,1.781787143846048860e+00,0.000000000000000000e+00
5.660000000000000000e+02,2.552348242406298429e+00,0.000000000000000000e+00
5.670000000000000000e+02,1.055779561792943438e-01,1.000000000000000000e+00
5.680000000000000000e+02,-1.119772945904018574e-01,0.000000000000000000e+00
5.690000000000000000e+02,1.198804407464369032e-01,0.000000000000000000e+00
5.700000000000000000e+02,-6.441305540056521117e-01,0.000000000000000000e+00
5.710000000000000000e+02,2.724124635574727282e-01,0.000000000000000000e+00
5.720000000000000000e+02,-2.641782587280693262e-01,0.000000000000000000e+00
5.730000000000000000e+02,-3.912476789753547082e-03,0.000000000000000000e+00
5.740000000000000000e+02,2.340930220541189155e-01,0.000000000000000000e+00
5.750000000000000000e+02,1.175425113495784102e-01,0.000000000000000000e+00
5.760000000000000000e+02,-6.052830359588809439e-02,0.000000000000000000e+00
5.770000000000000000e+02,7.047377172786888078e-02,0.000000000000000000e+00
5.780000000000000000e+02,4.960366963759776371e-01,0.000000000000000000e+00
5.790000000000000000e+02,6.896479002978213035e-01,0.000000000000000000e+00
5.800000000000000000e+02,1.073991728431560322e+00,0.000000000000000000e+00
5.810000000000000000e+02,9.844813131412841756e-01,0.000000000000000000e+00
5.820000000000000000e+02,7.030552114922711260e-01,0.000000000000000000e+00
5.830000000000000000e+02,6.723868420129891499e-01,0.000000000000000000e+00
5.840000000000000000e+02,1.794379923569274338e+00,0.000000000000000000e+00
5.850000000000000000e+02,-2.247654285478493108e-01,0.000000000000000000e+00
5.860000000000000000e+02,-1.061332331456128708e+00,0.000000000000000000e+00
5.870000000000000000e+02,-7.127649780783812394e-01,0.000000000000000000e+00
5.880000000000000000e+02,-1.964626350697755486e+00,0.000000000000000000e+00
5.890000000000000000e+02,-1.058569742237069899e+00,0.000000000000000000e+00
5.900000000000000000e+02,-2.406320037053934768e-01,0.000000000000000000e+00
5.910000000000000000e+02,-1.862562882806352516e+00,0.000000000000000000e+00
5.920000000000000000e+02,-1.417854799649505004e+00,0.000000000000000000e+00
5.930000000000000000e+02,1.484791446632297007e-01,0.000000000000000000e+00
5.940000000000000000e+02,-1.278430139769290097e+00,0.000000000000000000e+00
5.950000000000000000e+02,-1.618558578616170918e+00,0.000000000000000000e+00
5.960000000000000000e+02,-1.266511342005621765e-01,0.000000000000000000e+00
5.970000000000000000e+02,-8.763562983633435000e-01,0.000000000000000000e+00
5.980000000000000000e+02,-2.834595083926630954e-01,0.000000000000000000e+00
5.990000000000000000e+02,-4.458447712958400477e-01,0.000000000000000000e+00
6.000000000000000000e+02,5.863471830954131159e-01,0.000000000000000000e+00
6.010000000000000000e+02,-8.989789760908447613e-01,0.000000000000000000e+00
6.020000000000000000e+02,-5.982171654396334359e-01,0.000000000000000000e+00
6.030000000000000000e+02,4.097815663455795648e-02,0.000000000000000000e+00
6.040000000000000000e+02,7.107124950870660207e-01,0.000000000000000000e+00
6.050000000000000000e+02,-8.982830575692016817e-01,0.000000000000000000e+00
6.060000000000000000e+02,-1.359987960334042290e-01,0.000000000000000000e+00
6.070000000000000000e+02,-4.059521569406519537e-01,0.000000000000000000e+00
6.080000000000000000e+02,6.758716304549681197e-01,0.000000000000000000e+00
6.090000000000000000e+02,2.969370502954877256e-01,0.000000000000000000e+00
6.100000000000000000e+02,-5.745316690002570947e-01,0.000000000000000000e+00
6.110000000000000000e+02,3.823994979569927954e-01,0.000000000000000000e+00
6.120000000000000000e+02,1.276840128396322105e-01,0.000000000000000000e+00
6.130000000000000000e+02,5.168131232311655721e-01,0.000000000000000000e+00
6.140000000000000000e+02,-1.331204912352921543e-01,0.000000000000000000e+00
6.150000000000000000e+02,2.187830475649587270e-01,0.000000000000000000e+00
6.160000000000000000e+02,-1.656843586178290695e-01,0.000000000000000000e+00
6.170000000000000000e+02,1.521153814198069887e-01,0.000000000000000000e+00
6.180000000000000000e+02,1.893352269819012224e-01,0.000000000000000000e+00
6.190000000000000000e+02,8.979606306400461646e-01,0.000000000000000000e+00
6.200000000000000000e+02,-4.757974011090298355e-02,0.000000000000000000e+00
6.210000000000000000e+02,-6.036793057349698621e-01,0.000000000000000000e+00
6.220000000000000000e+02,5.288341436345489477e-01,0.000000000000000000e+00
6.230000000000000000e+02,1.147706458649647487e+00,0.000000000000000000e+00
6.240000000000000000e+02,7.854964948180166440e-01,0.000000000000000000e+00
6.250000000000000000e+02,1.959166050692495498e+00,0.000000000000000000e+00
6.260000000000000000e+02,2.961822469732957597e+00,0.000000000000000000e+00
6.270000000000000000e+02,1.264151859363671360e+00,1.000000000000000000e+00
6.280000000000000000e+02,-6.626951787520589665e-01,0.000000000000000000e+00
6.290000000000000000e+02,4.108822476270412860e-01,0.000000000000000000e+00
6.300000000000000000e+02,-1.234650077082715347e+00,0.000000000000000000e+00
6.310000000000000000e+02,-1.817782271922844251e-01,0.000000000000000000e+00
6.320000000000000000e+02,-5.136629104991355943e-01,0.000000000000000000e+00
6.330000000000000000e+02,-5.991499660467377586e-01,0.000000000000000000e+00
6.340000000000000000e+02,-5.610413896682158938e-03,0.000000000000000000e+00
6.350000000000000000e+02,-3.285413683738159230e-01,0.000000000000000000e+00
6.360000000000000000e+02,-1.580855746677080065e-01,0.000000000000000000e+00
6.370000000000000000e+02,3.122796378606108036e-01,0.000000000000000000e+00
6.380000000000000000e+02,4.175579090700052287e-01,0.000000000000000000e+00
6.390000000000000000e+02,3.266180770030903124e-01,0.000000000000000000e+00
6.400000000000000000e+02,8.978901562077308274e-01,0.000000000000000000e+00
6.410000000000000000e+02,1.460998756020240652e+00,0.000000000000000000e+00
6.420000000000000000e+02,4.223390516381071991e-01,0.000000000000000000e+00
6.430000000000000000e+02,7.662716216963547655e-01,0.000000000000000000e+00
6.440000000000000000e+02,2.789804882291111454e-01,0.000000000000000000e+00
6.450000000000000000e+02,3.169243309100719941e-01,0.000000000000000000e+00
6.460000000000000000e+02,-1.890187387647395689e-01,0.000000000000000000e+00
6.470000000000000000e+02,-1.946573965712967924e+00,0.000000000000000000e+00
6.480000000000000000e+02,-9.043159854500510964e-01,0.000000000000000000e+00
6.490000000000000000e+02,-1.125660075944175276e+00,0.000000000000000000e+00
6.500000000000000000e+02,-1.296887737447099953e+00,0.000000000000000000e+00
6.510000000000000000e+02,-1.119164233991232660e+00,0.000000000000000000e+00
6.520000000000000000e+02,-1.066877719682183923e+00,0.000000000000000000e+00
6.530000000000000000e+02,-1.182785806194504907e+00,0.000000000000000000e+00
6.540000000000000000e+02,-5.363941934101943421e-01,0.000000000000000000e+00
6.550000000000000000e+02,-7.109352501074780450e-01,0.000000000000000000e+00
6.560000000000000000e+02,-1.380198704899039397e+00,0.000000000000000000e+00
6.570000000000000000e+02,-2.252589842310212809e-01,0.000000000000000000e+00
6.580000000000000000e+02,2.183484206460381272e-01,0.000000000000000000e+00
6.590000000000000000e+02,-1.129415185477919081e+00,0.000000000000000000e+00
6.600000000000000000e+02,-4.098475390076361524e-02,0.000000000000000000e+00
6.610000000000000000e+02,-2.237610650005276702e-01,0.000000000000000000e+00
6.620000000000000000e+02,-4.911455409689264862e-01,0.000000000000000000e+00
6.630000000000000000e+02,5.345410646331039128e-01,0.000000000000000000e+00
6.640000000000000000e+02,-4.943394458226152977e-01,0.000000000000000000e+00
6.650000000000000000e+02,9.120564201479977595e-02,0.000000000000000000e+00
6.660000000000000000e+02,6.280925732804641670e-02,0.000000000000000000e+00
6.670000000000000000e+02,-2.632511233390094074e-01,0.000000000000000000e+00
6.680000000000000000e+02,6.174225096245639088e-01,0.000000000000000000e+00
6.690000000000000000e+02,2.800670828737544249e-01,0.000000000000000000e+00
6.700000000000000000e+02,1.798703044371420534e-01,0.000000000000000000e+00
6.710000000000000000e+02,-8.485142846413669115e-01,0.000000000000000000e+00
6.720000000000000000e+02,8.738000174542776000e-01,0.000000000000000000e+00
6.730000000000000000e+02,5.601440941998524492e-01,0.000000000000000000e+00
6.740000000000000000e+02,-2.254466111124343031e-01,0.000000000000000000e+00
6.750000000000000000e+02,1.161982289324766243e-01,0.000000000000000000e+00
6.760000000000000000e+02,4.271779205001313695e-01,0.000000000000000000e+00
6.770000000000000000e+02,5.976913369078405980e-01,0.000000000000000000e+00
6.780000000000000000e+02,-2.417632524279058337e-01,0.000000000000000000e+00
6.790000000000000000e+02,5.553047190933980692e-01,0.000000000000000000e+00
6.800000000000000000e+02,-1.222689213562888344e-01,0.000000000000000000e+00
6.810000000000000000e+02,1.544557163039850800e-01,0.000000000000000000e+00
6.820000000000000000e+02,1.998328860603654049e-03,0.000000000000000000e+00
6.830000000000000000e+02,9.778803382106486808e-01,0.000000000000000000e+00
6.840000000000000000e+02,1.665034659728845901e+00,0.000000000000000000e+00
6.850000000000000000e+02,2.346779607549231983e+00,0.000000000000000000e+00
6.860000000000000000e+02,1.919249185218392606e+00,0.000000000000000000e+00
6.870000000000000000e+02,1.464621662338686070e+00,0.000000000000000000e+00
6.880000000000000000e+02,-5.723842755819849026e-01,1.000000000000000000e+00
6.890000000000000000e+02,-9.130935936326664004e-01,0.000000000000000000e+00
6.900000000000000000e+02,3.085707538867537569e-01,0.000000000000000000e+00
6.910000000000000000e+02,-1.942069251074596270e-01,0.000000000000000000e+00
6.920000000000000000e+02,-1.473560535455692211e+00,0.000000000000000000e+00
6.930000000000000000e+02,-1.905871724811625534e-01,0.000000000000000000e+00
6.940000000000000000e+02,1.471613042288268461e-02,0.000000000000000000e+00
6.950000000000000000e+02,8.018408605835829484e-01,0.000000000000000000e+00
6.960000000000000000e+02,-4.026160530027764195e-01,0.000000000000000000e+00
6.970000000000000000e+02,1.701378183328949023e-01,0.000000000000000000e+00
6.980000000000000000e+02,3.662021717745282956e-01,0.000000000000000000e+00
6.990000000000000000e+02,1.478054728105486548e+00,0.000000000000000000e+00
7.000000000000000000e+02,6.878933329562759713e-01,0.000000000000000000e+00
7.010000000000000000e+02,7.057967499238356757e-01,0.000000000000000000e+00
7.020000000000000000e+02,1.649178289452248869e+00,0.000000000000000000e+00
7.030000000000000000e+02,7.673722445919002322e-01,0.000000000000000000e+00
7.040000000000000000e+02,4.976208297465897212e-01,0.000000000000000000e+00
7.050000000000000000e+02,-2.952832955800956394e-01,0.000000000000000000e+00
7.060000000000000000e+02,-1.173144467743381103e+00,0.000000000000000000e+00
7.070000000000000000e+02,-1.277315894187371015e+00,0.000000000000000000e+00
7.080000000000000000e+02,-1.236792152050841587e+00,0.000000000000000000e+00
7.090000000000000000e+02,-1.241045691162470543e+00,0.000000000000000000e+00
7.100000000000000000e+02,-3.504507579914488136e-01,0.000000000000000000e+00
7.110000000000000000e+02,-1.945623412898908056e+00,0.000000000000000000e+00
7.120000000000000000e+02,-1.240831538475355211e+00,0.000000000000000000e+00
7.130000000000000000e+02,-8.745300295105091770e-01,0.000000000000000000e+00
7.140000000000000000e+02,-7.083058914079908286e-01,0.000000000000000000e+00
7.150000000000000000e+02,-3.245917286035169269e-01,0.000000000000000000e+00
7.160000000000000000e+02,-9.483920088016936090e-01,0.000000000000000000e+00
7.170000000000000000e+02,-1.038510806935514008e+00,0.000000000000000000e+00
7.180000000000000000e+02,-1.164846748742828786e-01,0.000000000000000000e+00
7.190000000000000000e+02,-7.419674867634798998e-01,0.000000000000000000e+00
7.200000000000000000e+02,3.964637553576282336e-01,0.000000000000000000e+00
7.210000000000000000e+02,-2.314047073561308898e-01,0.000000000000000000e+00
7.220000000000000000e+02,-6.348282947402709153e-01,0.000000000000000000e+00
7.230000000000000000e+02,1.192997869348747936e-01,0.000000000000000000e+00
7.240000000000000000e+02,1.046495492061087079e-01,0.000000000000000000e+00
7.250000000000000000e+02,-1.656343951596675745e-01,0.000000000000000000e+00
7.260000000000000000e+02,-1.146820844687633373e-01,0.000000000000000000e+00
7.270000000000000000e+02,2.810475507443164211e-01,0.000000000000000000e+00
7.280000000000000000e+02,-1.325036057057243366e-01,0.000000000000000000e+00
7.290000000000000000e+02,3.257487986745609687e-01,0.000000000000000000e+00
7.300000000000000000e+02,4.674505905983694087e-01,0.000000000000000000e+00
7.310000000000000000e+02,-2.118918012837886500e-01,0.000000000000000000e+00
7.320000000000000000e+02,-1.183453514707571812e-03,0.000000000000000000e+00
7.330000000000000000e+02,4.460499223930823876e-01,0.000000000000000000e+00
7.340000000000000000e+02,4.002707180495540529e-01,0.000000000000000000e+00
7.350000000000000000e+02,1.347094545443658642e-01,0.000000000000000000e+00
7.360000000000000000e+02,5.215457743140007318e-01,0.000000000000000000e+00
7.370000000000000000e+02,-4.102942712978146500e-01,0.000000000000000000e+00
7.380000000000000000e+02,6.455850023611445776e-01,0.000000000000000000e+00
7.390000000000000000e+02,-1.212885362420343394e-01,0.000000000000000000e+00
7.400000000000000000e+02,-6.539353491140441621e-01,0.000000000000000000e+00
7.410000000000000000e+02,-7.525357362265881755e-02,0.000000000000000000e+00
7.420000000000000000e+02,1.255043883536369309e+00,0.000000000000000000e+00
7.430000000000000000e+02,5.574638935058562339e-01,0.000000000000000000e+00
7.440000000000000000e+02,1.491226457219690715e+00,0.000000000000000000e+00
7.450000000000000000e+02,2.397480178487798153e+00,0.000000000000000000e+00
7.460000000000000000e+02,1.725219822001506254e+00,0.000000000000000000e+00
7.470000000000000000e+02,3.581167182190219678e-01,0.000000000000000000e+00
7.480000000000000000e+02,-9.390465807339094528e-01,1.000000000000000000e+00
7.490000000000000000e+02,6.842340829139756386e-02,0.000000000000000000e+00
7.500000000000000000e+02,-7.450064863553182981e-01,0.000000000000000000e+00
7.510000000000000000e+02,2.806921924034361249e-01,0.000000000000000000e+00
7.520000000000000000e+02,-5.546508459396818358e-01,0.000000000000000000e+00
7.530000000000000000e+02,-3.803113912497376736e-01,0.000000000000000000e+00
7.540000000000000000e+02,2.342572882907427434e-01,0.000000000000000000e+00
7.550000000000000000e+02,7.381384622533837536e-01,0.000000000000000000e+00
7.560000000000000000e+02,-4.598051107535793269e-01,0.000000000000000000e+00
7.570000000000000000e+02,7.344732544795401497e-01,0.000000000000000000e+00
7.580000000000000000e+02,6.214382835139705685e-01,0.000000000000000000e+00
7.590000000000000000e+02,2.393541992650614347e-01,0.000000000000000000e+00
7.600000000000000000e+02,1.669844418216239079e+00,0.000000000000000000e+00
7.610000000000000000e+02,6.782511050301763822e-01,0.000000000000000000e+00
7.620000000000000000e+02,1.051965493541396013e+00,0.000000000000000000e+00
7.630000000000000000e+02,1.316655978204591904e+00,0.000000000000000000e+00
7.640000000000000000e+02,4.537148171992668177e-01,0.000000000000000000e+00
7.650000000000000000e+02,-7.774435655623807007e-01,0.000000000000000000e+00
7.660000000000000000e+02,-2.122727157628732098e+00,0.000000000000000000e+00
7.670000000000000000e+02,-6.517423108589420755e-01,0.000000000000000000e+00
7.680000000000000000e+02,-1.697255799457994652e+00,0.000000000000000000e+00
7.690000000000000000e+02,-1.107120512500880949e+00,0.000000000000000000e+00
7.700000000000000000e+02,-1.427165406993795294e-01,0.000000000000000000e+00
7.710000000000000000e+02,-1.934273611336529530e+00,0.000000000000000000e+00
7.720000000000000000e+02,-1.341180033520019910e+00,0.000000000000000000e+00
7.730000000000000000e+02,-5.274152443278602442e-01,0.000000000000000000e+00
7.740000000000000000e+02,-8.718757165924092556e-01,0.000000000000000000e+00
7.750000000000000000e+02,-1.055322140190795066e+00,0.000000000000000000e+00
7.760000000000000000e+02,-8.400717802853551186e-01,0.000000000000000000e+00
7.770000000000000000e+02,-7.555035585453115932e-01,0.000000000000000000e+00
7.780000000000000000e+02,1.871046225266257690e-01,0.000000000000000000e+00
7.790000000000000000e+02,1.979860009980226598e-01,0.000000000000000000e+00
7.800000000000000000e+02,-2.052850414617478081e-01,0.000000000000000000e+00
7.810000000000000000e+02,-1.488619788666638299e-01,0.000000000000000000e+00
7.820000000000000000e+02,-6.203525162188060493e-01,0.000000000000000000e+00
7.830000000000000000e+02,1.165617766657734561e-01,0.000000000000000000e+00
7.840000000000000000e+02,1.770657285160871230e-01,0.000000000000000000e+00
7.850000000000000000e+02,1.216323760900313161e-01,0.000000000000000000e+00
7.860000000000000000e+02,-3.544608052986364388e-01,0.000000000000000000e+00
7.870000000000000000e+02,1.609039645398130103e-01,0.000000000000000000e+00
7.880000000000000000e+02,1.026482280118080348e-01,0.000000000000000000e+00
7.890000000000000000e+02,1.807057165289820133e-01,0.000000000000000000e+00
7.900000000000000000e+02,4.075018021436397908e-01,0.000000000000000000e+00
7.910000000000000000e+02,2.216357716015494306e-01,0.000000000000000000e+00
7.920000000000000000e+02,-1.416823969751090928e-02,0.000000000000000000e+00
7.930000000000000000e+02,1.841199381408953617e-01,0.000000000000000000e+00
7.940000000000000000e+02,2.261428392377610175e-01,0.000000000000000000e+00
7.950000000000000000e+02,2.967674105031771759e-01,0.000000000000000000e+00
7.960000000000000000e+02,7.554814790331368379e-02,0.000000000000000000e+00
7.970000000000000000e+02,3.694525204219532566e-01,0.000000000000000000e+00
7.980000000000000000e+02,1.459295223672056954e-02,0.000000000000000000e+00
7.990000000000000000e+02,-2.979229734085291348e-01,0.000000000000000000e+00
8.000000000000000000e+02,2.921123101408477085e-01,0.000000000000000000e+00
8.010000000000000000e+02,2.453719653267527057e-01,0.000000000000000000e+00
8.020000000000000000e+02,3.078790982215658945e-01,0.000000000000000000e+00
8.030000000000000000e+02,6.130041065608444750e-01,0.000000000000000000e+00
8.040000000000000000e+02,1.969251155452130808e+00,0.000000000000000000e+00
8.050000000000000000e+02,2.675260329005745064e+00,0.000000000000000000e+00
8.060000000000000000e+02,2.101818717175280293e-01,1.000000000000000000e+00
8.070000000000000000e+02,-2.962254051684558576e-01,0.000000000000000000e+00
8.080000000000000000e+02,-5.605075861138232307e-01,0.000000000000000000e+00
8.090000000000000000e+02,-4.054419005491494143e-01,0.000000000000000000e+00
8.100000000000000000e+02,4.624744496816934336e-01,0.000000000000000000e+00
8.110000000000000000e+02,-1.027113593419945459e-01,0.000000000000000000e+00
8.120000000000000000e+02,-2.726752692954643176e-01,0.000000000000000000e+00
8.130000000000000000e+02,2.315831627563162132e-01,0.000000000000000000e+00
8.140000000000000000e+02,2.532076779118043741e-01,0.000000000000000000e+00
8.150000000000000000e+02,4.020161925595533980e-01,0.000000000000000000e+00
8.160000000000000000e+02,-3.211190890985161084e-01,0.000000000000000000e+00
8.170000000000000000e+02,6.677861309545869428e-01,0.000000000000000000e+00
8.180000000000000000e+02,7.389172340447992537e-01,0.000000000000000000e+00
8.190000000000000000e+02,1.254466939215003851e+00,0.000000000000000000e+00
8.200000000000000000e+02,5.162420409862374937e-01,0.000000000000000000e+00
8.210000000000000000e+02,1.827844486083812336e+00,0.000000000000000000e+00
8.220000000000000000e+02,8.422577006548251921e-01,0.000000000000000000e+00
8.230000000000000000e+02,8.500323356887434789e-01,0.000000000000000000e+00
8.240000000000000000e+02,-3.107459097550503979e-01,0.000000000000000000e+00
8.250000000000000000e+02,-1.063241281365119528e+00,0.000000000000000000e+00
8.260000000000000000e+02,-8.199041602555958708e-01,0.000000000000000000e+00
8.270000000000000000e+02,-1.539994168321355161e+00,0.000000000000000000e+00
8.280000000000000000e+02,-1.894023016345165233e+00,0.000000000000000000e+00
8.290000000000000000e+02,-6.727203608171906657e-01,0.000000000000000000e+00
8.300000000000000000e+02,-4.203614290642255225e-01,0.000000000000000000e+00
8.310000000000000000e+02,-1.420108125049078795e+00,0.000000000000000000e+00
8.320000000000000000e+02,-1.110454926547593368e+00,0.000000000000000000e+00
8.330000000000000000e+02,-7.779675559642050819e-01,0.000000000000000000e+00
8.340000000000000000e+02,-7.120348319908723633e-01,0.000000000000000000e+00
8.350000000000000000e+02,1.099213872681453763e-01,0.000000000000000000e+00
8.360000000000000000e+02,-1.321977172374244391e+00,0.000000000000000000e+00
8.370000000000000000e+02,-5.978560985122579607e-01,0.000000000000000000e+00
8.380000000000000000e+02,-5.363798223396726295e-02,0.000000000000000000e+00
8.390000000000000000e+02,5.746303634953662254e-01,0.000000000000000000e+00
8.400000000000000000e+02,-6.031882998387558814e-01,0.000000000000000000e+00
8.410000000000000000e+02,-5.201329913214280953e-02,0.000000000000000000e+00
8.420000000000000000e+02,-2.796695181242109807e-01,0.000000000000000000e+00
8.430000000000000000e+02,1.331516341324609776e-01,0.000000000000000000e+00
8.440000000000000000e+02,-2.943062965379072971e-01,0.000000000000000000e+00
8.450000000000000000e+02,2.534449769518731244e-01,0.000000000000000000e+00
8.460000000000000000e+02,2.059239244385861478e-01,0.000000000000000000e+00
8.470000000000000000e+02,-7.867073923755496523e-01,0.000000000000000000e+00
8.480000000000000000e+02,6.329919981522587058e-01,0.000000000000000000e+00
8.490000000000000000e+02,6.370697792177175689e-01,0.000000000000000000e+00
8.500000000000000000e+02,-7.096816763887421331e-01,0.000000000000000000e+00
8.510000000000000000e+02,8.612640444949191121e-01,0.000000000000000000e+00
8.520000000000000000e+02,-2.267352844099992659e-01,0.000000000000000000e+00
8.530000000000000000e+02,3.594884795336077826e-02,0.000000000000000000e+00
8.540000000000000000e+02,1.078572011004939490e+00,0.000000000000000000e+00
8.550000000000000000e+02,-3.471229613005514247e-01,0.000000000000000000e+00
8.560000000000000000e+02,-4.255249399517348485e-01,0.000000000000000000e+00
8.570000000000000000e+02,8.503150622096777855e-01,0.000000000000000000e+00
8.580000000000000000e+02,8.075733140340041194e-01,0.000000000000000000e+00
8.590000000000000000e+02,-9.704901040682271107e-01,0.000000000000000000e+00
8.600000000000000000e+02,-7.021870741482787448e-01,0.000000000000000000e+00
8.610000000000000000e+02,5.721757772800332154e-01,0.000000000000000000e+00
8.620000000000000000e+02,6.604025516183188449e-01,1.000000000000000000e+00
8.630000000000000000e+02,2.645670485949194184e+00,0.000000000000000000e+00
8.640000000000000000e+02,1.950475293620393069e+00,0.000000000000000000e+00
8.650000000000000000e+02,1.250779689844912834e+00,0.000000000000000000e+00
8.660000000000000000e+02,8.467558987341824439e-01,0.000000000000000000e+00
8.670000000000000000e+02,2.564330150697525235e-01,0.000000000000000000e+00
8.680000000000000000e+02,-5.445392421370989222e-01,0.000000000000000000e+00
8.690000000000000000e+02,-1.614311820192425140e+00,0.000000000000000000e+00
8.700000000000000000e+02,-3.462729637686026152e-01,0.000000000000000000e+00
8.710000000000000000e+02,4.300054975183376649e-01,0.000000000000000000e+00
8.720000000000000000e+02,-1.067381317175187583e+00,0.000000000000000000e+00
8.730000000000000000e+02,-9.370421491274730785e-01,0.000000000000000000e+00
8.740000000000000000e+02,2.491383510929191247e-01,0.000000000000000000e+00
8.750000000000000000e+02,2.767121916795881598e-01,0.000000000000000000e+00
8.760000000000000000e+02,-3.173282702326928328e-01,0.000000000000000000e+00
8.770000000000000000e+02,1.368252571788149963e+00,0.000000000000000000e+00
8.780000000000000000e+02,2.103081746136678809e-01,0.000000000000000000e+00
8.790000000000000000e+02,2.631104910224592586e-01,0.000000000000000000e+00
8.800000000000000000e+02,1.021018057465295392e+00,0.000000000000000000e+00
8.810000000000000000e+02,2.080856941667645454e+00,0.000000000000000000e+00
8.820000000000000000e+02,1.218224700063260946e-01,0.000000000000000000e+00
8.830000000000000000e+02,6.286804426917939892e-02,0.000000000000000000e+00
8.840000000000000000e+02,-4.287353682679060363e-01,0.000000000000000000e+00
8.850000000000000000e+02,5.515291034854344909e-01,0.000000000000000000e+00
8.860000000000000000e+02,-2.116980975433814471e+00,0.000000000000000000e+00
8.870000000000000000e+02,-2.031514221840844847e+00,0.000000000000000000e+00
8.880000000000000000e+02,-7.711374772844714620e-01,0.000000000000000000e+00
8.890000000000000000e+02,-1.879908817909154983e-01,0.000000000000000000e+00
8.900000000000000000e+02,-1.885948595428818875e+00,0.000000000000000000e+00
8.910000000000000000e+02,-1.679944113553739404e+00,0.000000000000000000e+00
8.920000000000000000e+02,7.575196986423635703e-01,0.000000000000000000e+00
8.930000000000000000e+02,-1.737094287848829133e+00,0.000000000000000000e+00
8.940000000000000000e+02,-1.209200144007039235e+00,0.000000000000000000e+00
8.950000000000000000e+02,-9.813200580309006105e-02,0.000000000000000000e+00
8.960000000000000000e+02,-5.432013681851736997e-02,0.000000000000000000e+00
8.970000000000000000e+02,-1.570950681356916290e+00,0.000000000000000000e+00
8.980000000000000000e+02,8.143440181702250869e-02,0.000000000000000000e+00
8.990000000000000000e+02,1.917629025643640683e-01,0.000000000000000000e+00
9.000000000000000000e+02,-6.301525423745861776e-01,0.000000000000000000e+00
9.010000000000000000e+02,-4.429122498447840561e-01,0.000000000000000000e+00
9.020000000000000000e+02,1.158770326866784606e+00,0.000000000000000000e+00
9.030000000000000000e+02,-2.184169998963942649e-01,0.000000000000000000e+00
9.040000000000000000e+02,-3.726565292523820183e-01,0.000000000000000000e+00
9.050000000000000000e+02,-3.145625251661362393e-02,0.000000000000000000e+00
9.060000000000000000e+02,8.223629743086416921e-01,0.000000000000000000e+00
9.070000000000000000e+02,-5.704383946546107698e-01,0.000000000000000000e+00
9.080000000000000000e+02,2.028047414880597421e-02,0.000000000000000000e+00
9.090000000000000000e+02,7.229156476664145847e-01,0.000000000000000000e+00
9.100000000000000000e+02,-4.242380275766310382e-01,0.000000000000000000e+00
9.110000000000000000e+02,7.336692005682440842e-02,0.000000000000000000e+00
9.120000000000000000e+02,5.442821927259974268e-01,0.000000000000000000e+00
9.130000000000000000e+02,1.761225955962353318e-01,0.000000000000000000e+00
9.140000000000000000e+02,1.667368420503896886e-01,0.000000000000000000e+00
9.150000000000000000e+02,1.223074095173242393e+00,0.000000000000000000e+00
9.160000000000000000e+02,-4.703394430534117987e-01,0.000000000000000000e+00
9.170000000000000000e+02,9.550864047686381808e-02,0.000000000000000000e+00
9.180000000000000000e+02,8.511676984400030899e-02,0.000000000000000000e+00
9.190000000000000000e+02,5.680213295217519942e-01,0.000000000000000000e+00
9.200000000000000000e+02,-1.169079161013351076e+00,0.000000000000000000e+00
9.210000000000000000e+02,1.054617625325233732e+00,0.000000000000000000e+00
9.220000000000000000e+02,2.256758928493625138e+00,0.000000000000000000e+00
9.230000000000000000e+02,1.037505265060769677e+00,0.000000000000000000e+00
9.240000000000000000e+02,2.208423527577579648e+00,0.000000000000000000e+00
9.250000000000000000e+02,1.770953880907419453e+00,0.000000000000000000e+00
9.260000000000000000e+02,1.164792540413069455e+00,0.000000000000000000e+00
9.270000000000000000e+02,-1.653770871787963337e+00,0.000000000000000000e+00
9.280000000000000000e+02,-3.133729669433842763e-02,1.000000000000000000e+00
9.290000000000000000e+02,-1.043406986755938959e-01,0.000000000000000000e+00
9.300000000000000000e+02,2.740196641680878176e-01,0.000000000000000000e+00
9.310000000000000000e+02,-5.687255611372089570e-01,0.000000000000000000e+00
9.320000000000000000e+02,-3.274249015891325110e-01,0.000000000000000000e+00
9.330000000000000000e+02,8.228267824251835061e-02,0.000000000000000000e+00
9.340000000000000000e+02,-8.774463478568457486e-02,0.000000000000000000e+00
9.350000000000000000e+02,2.909902241926486943e-01,0.000000000000000000e+00
9.360000000000000000e+02,7.838192771830485572e-01,0.000000000000000000e+00
9.370000000000000000e+02,8.753251840672527928e-01,0.000000000000000000e+00
9.380000000000000000e+02,3.320388950161102248e-01,0.000000000000000000e+00
9.390000000000000000e+02,9.451388826744340221e-01,0.000000000000000000e+00
9.400000000000000000e+02,9.642374093133293522e-01,0.000000000000000000e+00
9.410000000000000000e+02,1.296185623191716152e+00,0.000000000000000000e+00
9.420000000000000000e+02,9.728330450134115015e-01,0.000000000000000000e+00
9.430000000000000000e+02,-1.964855151767722768e-02,0.000000000000000000e+00
9.440000000000000000e+02,-6.275742575909042387e-01,0.000000000000000000e+00
9.450000000000000000e+02,-1.500064607443012621e+00,0.000000000000000000e+00
9.460000000000000000e+02,-5.373515703292084389e-01,0.000000000000000000e+00
9.470000000000000000e+02,-1.469726991797937199e+00,0.000000000000000000e+00
9.480000000000000000e+02,-1.677020040449084037e+00,0.000000000000000000e+00
9.490000000000000000e+02,-1.411044485217383349e+00,0.000000000000000000e+00
9.500000000000000000e+02,-1.095519307768450856e+00,0.000000000000000000e+00
9.510000000000000000e+02,-7.708111274952218483e-01,0.000000000000000000e+00
9.520000000000000000e+02,-9.925376698534116304e-01,0.000000000000000000e+00
9.530000000000000000e+02,-1.149165195121396588e+00,0.000000000000000000e+00
9.540000000000000000e+02,7.649389234746170607e-02,0.000000000000000000e+00
9.550000000000000000e+02,-1.549721134681907975e+00,0.000000000000000000e+00
9.560000000000000000e+02,-6.303254154873656478e-01,0.000000000000000000e+00
9.570000000000000000e+02,3.293844403715535107e-01,0.000000000000000000e+00
9.580000000000000000e+02,-5.161708184070006311e-01,0.000000000000000000e+00
9.590000000000000000e+02,-1.089870652823853092e+00,0.000000000000000000e+00
9.600000000000000000e+02,2.518242645734782847e-01,0.000000000000000000e+00
9.610000000000000000e+02,4.614479044812552222e-01,0.000000000000000000e+00
9.620000000000000000e+02,-8.560655662967912027e-01,0.000000000000000000e+00
9.630000000000000000e+02,7.219852534987508674e-01,0.000000000000000000e+00
9.640000000000000000e+02,2.287934143768143080e+00,0.000000000000000000e+00
9.650000000000000000e+02,-2.635278793264460351e+00,1.000000000000000000e+00
9.660000000000000000e+02,-7.709765819221396477e+00,0.000000000000000000e+00
9.670000000000000000e+02,-6.178266030702690870e+00,0.000000000000000000e+00
9.680000000000000000e+02,-1.751905828498878437e+00,0.000000000000000000e+00
9.690000000000000000e+02,-6.124212464670482081e-01,0.000000000000000000e+00
9.700000000000000000e+02,-1.191713067580161683e-01,0.000000000000000000e+00
9.710000000000000000e+02,1.688812800268032266e+00,0.000000000000000000e+00
9.720000000000000000e+02,3.513985455104768008e+00,0.000000000000000000e+00
9.730000000000000000e+02,3.037954458519604550e+00,0.000000000000000000e+00
9.740000000000000000e+02,3.420900897479796754e+00,0.000000000000000000e+00
9.750000000000000000e+02,4.185016702351661344e+00,0.000000000000000000e+00
9.760000000000000000e+02,4.169987754574894012e+00,0.000000000000000000e+00
9.770000000000000000e+02,3.183611375598395021e+00,0.000000000000000000e+00
9.780000000000000000e+02,3.042812074189471527e+00,0.000000000000000000e+00
9.790000000000000000e+02,4.045100782520067995e+00,0.000000000000000000e+00
9.800000000000000000e+02,4.229531100909447616e+00,0.000000000000000000e+00
9.810000000000000000e+02,3.532613011673933823e+00,0.000000000000000000e+00
9.820000000000000000e+02,3.865811261138906385e+00,0.000000000000000000e+00
9.830000000000000000e+02,4.316228635427132865e+00,0.000000000000000000e+00
9.840000000000000000e+02,1.430986276669272916e+00,0.000000000000000000e+00
9.850000000000000000e+02,1.114898055563782631e+00,0.000000000000000000e+00
9.860000000000000000e+02,9.868819594287019381e-01,0.000000000000000000e+00
9.870000000000000000e+02,6.747214305120924349e-01,0.000000000000000000e+00
9.880000000000000000e+02,-6.740764024372595253e-01,0.000000000000000000e+00
9.890000000000000000e+02,-2.386009217030434115e+00,0.000000000000000000e+00
9.900000000000000000e+02,-2.983921225510951736e+00,0.000000000000000000e+00
9.910000000000000000e+02,-2.735913208668740548e+00,0.000000000000000000e+00
9.920000000000000000e+02,-2.943576366756572860e+00,0.000000000000000000e+00
9.930000000000000000e+02,-3.747690755803072982e+00,0.000000000000000000e+00
9.940000000000000000e+02,-3.721355991269653885e+00,0.000000000000000000e+00
9.950000000000000000e+02,-3.141680703386680484e+00,0.000000000000000000e+00
9.960000000000000000e+02,-2.060821486002336389e+00,0.000000000000000000e+00
9.970000000000000000e+02,-2.194362955727339859e+00,0.000000000000000000e+00
9.980000000000000000e+02,-2.360302877794187015e+00,0.000000000000000000e+00
9.990000000000000000e+02,-1.798422182280465798e+00,0.000000000000000000e+00
1.000000000000000000e+03,-2.043861117730314536e+00,0.000000000000000000e+00
1.001000000000000000e+03,-1.692858170994996359e+00,0.000000000000000000e+00
1.002000000000000000e+03,-1.301485173006486695e+00,0.000000000000000000e+00
1.003000000000000000e+03,-1.927912188674709260e+00,0.000000000000000000e+00
1.004000000000000000e+03,-9.775569609169857399e-01,0.000000000000000000e+00
1.005000000000000000e+03,-1.698423168926966320e-01,0.000000000000000000e+00
1.006000000000000000e+03,-1.639359763684221205e+00,0.000000000000000000e+00
1.007000000000000000e+03,-7.859600873377907693e-01,0.000000000000000000e+00
1.008000000000000000e+03,-2.678949707948273806e-01,0.000000000000000000e+00
1.009000000000000000e+03,-4.329364503351474935e-01,0.000000000000000000e+00
1.010000000000000000e+03,-6.007913964036889487e-01,0.000000000000000000e+00
1.011000000000000000e+03,1.796806566515398162e-01,0.000000000000000000e+00
1.012000000000000000e+03,-7.256089151755576450e-02,0.000000000000000000e+00
1.013000000000000000e+03,-2.731339979218579406e-01,0.000000000000000000e+00
1.014000000000000000e+03,5.633081887042369340e-01,0.000000000000000000e+00
1.015000000000000000e+03,-4.875620198133198691e-01,0.000000000000000000e+00
1.016000000000000000e+03,6.359175045677202265e-01,0.000000000000000000e+00
1.017000000000000000e+03,2.563013447893729979e-01,0.000000000000000000e+00
1.018000000000000000e+03,-3.415152901257013929e-02,0.000000000000000000e+00
1.019000000000000000e+03,1.291209083898018584e+00,0.000000000000000000e+00
1.020000000000000000e+03,1.592649679859648726e-01,0.000000000000000000e+00
1.021000000000000000e+03,-2.033503275632241314e-01,0.000000000000000000e+00
1.022000000000000000e+03,6.814248134224981657e-01,0.000000000000000000e+00
1.023000000000000000e+03,1.776543796677224396e+00,0.000000000000000000e+00
1.024000000000000000e+03,1.212242204318543654e-01,1.000000000000000000e+00
1.025000000000000000e+03,-8.665005015347931883e-02,0.000000000000000000e+00
1.026000000000000000e+03,9.580262815174162006e-01,0.000000000000000000e+00
1.027000000000000000e+03,1.677687538060191219e+00,0.000000000000000000e+00
1.028000000000000000e+03,-3.058988059492242506e-01,0.000000000000000000e+00
1.029000000000000000e+03,4.858962180657853125e-01,0.000000000000000000e+00
1.030000000000000000e+03,7.668885044578257482e-01,0.000000000000000000e+00
1.031000000000000000e+03,3.015754285000796786e-01,0.000000000000000000e+00
1.032000000000000000e+03,1.341001149911857926e+00,0.000000000000000000e+00
1.033000000000000000e+03,1.340666910894274144e+00,0.000000000000000000e+00
1.034000000000000000e+03,1.709920782280326845e+00,0.000000000000000000e+00
1.035000000000000000e+03,2.696086040417306151e+00,0.000000000000000000e+00
1.036000000000000000e+03,2.585927284473314547e+00,0.000000000000000000e+00
1.037000000000000000e+03,4.611299373508784272e-01,0.000000000000000000e+00
1.038000000000000000e+03,4.749996319463076766e-01,0.000000000000000000e+00
1.039000000000000000e+03,-5.835319893511932143e-01,0.000000000000000000e+00
1.040000000000000000e+03,-7.511051093604431683e-01,0.000000000000000000e+00
1.041000000000000000e+03,4.104167695104199431e-01,0.000000000000000000e+00
1.042000000000000000e+03,-2.126520048149554420e-01,0.000000000000000000e+00
1.043000000000000000e+03,-2.525254244493264077e-01,0.000000000000000000e+00
1.044000000000000000e+03,5.824339839083154668e-01,0.000000000000000000e+00
1.045000000000000000e+03,7.043155775844038569e-02,0.000000000000000000e+00
1.046000000000000000e+03,-1.996755495360531124e-02,0.000000000000000000e+00
1.047000000000000000e+03,1.010042260364238276e+00,0.000000000000000000e+00
1.048000000000000000e+03,2.715864038713299289e-01,0.000000000000000000e+00
1.049000000000000000e+03,8.493441273686157533e-01,0.000000000000000000e+00
1.050000000000000000e+03,8.901213032787986812e-01,0.000000000000000000e+00
1.051000000000000000e+03,1.119397568068179361e+00,0.000000000000000000e+00
1.052000000000000000e+03,1.269123236403705723e+00,0.000000000000000000e+00
1.053000000000000000e+03,8.399778705170825033e-01,0.000000000000000000e+00
1.054000000000000000e+03,4.296688939951657238e-01,0.000000000000000000e+00
1.055000000000000000e+03,-3.494151086484865720e-01,0.000000000000000000e+00
1.056000000000000000e+03,-8.441807468712191342e-01,0.000000000000000000e+00
1.057000000000000000e+03,-7.874613595740230787e-01,0.000000000000000000e+00
1.058000000000000000e+03,-1.213167859998222076e+00,0.000000000000000000e+00
1.059000000000000000e+03,-1.845952019621426299e+00,0.000000000000000000e+00
1.060000000000000000e+03,-9.949569349821033581e-01,0.000000000000000000e+00
1.061000000000000000e+03,-6.270259938318829551e-01,0.000000000000000000e+00
1.062000000000000000e+03,-1.093013192650342580e+00,0.000000000000000000e+00
1.063000000000000000e+03,-1.084966005718860149e+00,0.000000000000000000e+00
1.064000000000000000e+03,-9.626086914665892280e-01,0.000000000000000000e+00
1.065000000000000000e+03,-6.137835719129963730e-01,0.000000000000000000e+00
1.066000000000000000e+03,-7.226706246434274616e-01,0.000000000000000000e+00
1.067000000000000000e+03,-7.109752496576123848e-01,0.000000000000000000e+00
1.068000000000000000e+03,-8.649243175731017308e-01,0.000000000000000000e+00
1.069000000000000000e+03,-3.799391209939714242e-01,0.000000000000000000e+00
1.070000000000000000e+03,6.171769336462697153e-02,0.000000000000000000e+00
1.071000000000000000e+03,-4.507876745574291438e-02,0.000000000000000000e+00
1.072000000000000000e+03,-2.788842678446718515e-01,0.000000000000000000e+00
1.073000000000000000e+03,-8.926000042722085359e-01,0.000000000000000000e+00
1.074000000000000000e+03,-2.011133354918593075e-01,0.000000000000000000e+00
1.075000000000000000e+03,1.892860577431500768e-01,0.000000000000000000e+00
1.076000000000000000e+03,-1.804289532845992083e-01,0.000000000000000000e+00
1.077000000000000000e+03,-5.494018670808168414e-01,0.000000000000000000e+00
1.078000000000000000e+03,1.439497393813417292e-01,0.000000000000000000e+00
1.079000000000000000e+03,-2.642834841495329545e-01,0.000000000000000000e+00
1.080000000000000000e+03,6.413097733019876845e-01,0.000000000000000000e+00
1.081000000000000000e+03,-5.762149498181562413e-01,0.000000000000000000e+00
1.082000000000000000e+03,4.244929188784100083e-01,0.000000000000000000e+00
1.083000000000000000e+03,1.087995129341041423e-01,0.000000000000000000e+00
1.084000000000000000e+03,-2.871973688398374649e-03,0.000000000000000000e+00
1.085000000000000000e+03,3.359332787386328650e-02,0.000000000000000000e+00
1.086000000000000000e+03,3.299681222769811906e-01,0.000000000000000000e+00
1.087000000000000000e+03,8.787742933003214740e-02,0.000000000000000000e+00
1.088000000000000000e+03,2.685850827387544770e-01,0.000000000000000000e+00
1.089000000000000000e+03,-4.077680697661389408e-01,0.000000000000000000e+00
1.090000000000000000e+03,1.399540007082458182e-01,0.000000000000000000e+00
1.091000000000000000e+03,-2.531273589116230238e-01,0.000000000000000000e+00
1.092000000000000000e+03,1.272212031245586461e+00,0.000000000000000000e+00
1.093000000000000000e+03,6.367372103749502354e-01,0.000000000000000000e+00
1.094000000000000000e+03,1.434735512152371717e+00,0.000000000000000000e+00
1.095000000000000000e+03,2.901243431904591219e+00,0.000000000000000000e+00
1.096000000000000000e+03,1.421435471662527705e+00,0.000000000000000000e+00
1.097000000000000000e+03,-8.186815329712822387e-02,0.000000000000000000e+00
1.098000000000000000e+03,-1.131575939373547168e+00,1.000000000000000000e+00
1.099000000000000000e+03,-5.057691750181746437e-01,0.000000000000000000e+00
1.100000000000000000e+03,4.485689042091289824e-02,0.000000000000000000e+00
1.101000000000000000e+03,-5.286969002810592011e-01,0.000000000000000000e+00
1.102000000000000000e+03,-1.612749176691959663e-01,0.000000000000000000e+00
1.103000000000000000e+03,-5.473997657632930780e-01,0.000000000000000000e+00
1.104000000000000000e+03,1.304453656869832834e-01,0.000000000000000000e+00
1.105000000000000000e+03,2.009655952149543012e-02,0.000000000000000000e+00
1.106000000000000000e+03,-9.986824868248339593e-02,0.000000000000000000e+00
1.107000000000000000e+03,9.010995766556687547e-01,0.000000000000000000e+00
1.108000000000000000e+03,3.007340826383391938e-02,0.000000000000000000e+00
1.109000000000000000e+03,1.174860627210970510e+00,0.000000000000000000e+00
1.110000000000000000e+03,9.980975102631620688e-01,0.000000000000000000e+00
1.111000000000000000e+03,6.411940264063443751e-01,0.000000000000000000e+00
1.112000000000000000e+03,1.220328560467623946e+00,0.000000000000000000e+00
1.113000000000000000e+03,4.643672700229993788e-01,0.000000000000000000e+00
1.114000000000000000e+03,6.469831672108385945e-01,0.000000000000000000e+00
1.115000000000000000e+03,-1.034573398445824521e+00,0.000000000000000000e+00
1.116000000000000000e+03,-1.344172230085508124e+00,0.000000000000000000e+00
1.117000000000000000e+03,-1.440224488183898810e+00,0.000000000000000000e+00
1.118000000000000000e+03,-1.420688600169160765e+00,0.000000000000000000e+00
1.119000000000000000e+03,-1.363889938091975562e+00,0.000000000000000000e+00
1.120000000000000000e+03,-6.461985250130324321e-01,0.000000000000000000e+00
1.121000000000000000e+03,-1.103533026167664799e+00,0.000000000000000000e+00
1.122000000000000000e+03,-1.297893510475840673e+00,0.000000000000000000e+00
1.123000000000000000e+03,-6.886934254803578348e-01,0.000000000000000000e+00
1.124000000000000000e+03,-1.547460434923922268e+00,0.000000000000000000e+00
1.125000000000000000e+03,-5.362334070255970753e-01,0.000000000000000000e+00
1.126000000000000000e+03,-3.783458494749316614e-01,0.000000000000000000e+00
1.127000000000000000e+03,-3.907298468389215906e-01,0.000000000000000000e+00
1.128000000000000000e+03,1.926403459123019954e-02,0.000000000000000000e+00
1.129000000000000000e+03,-5.410542206785995401e-01,0.000000000000000000e+00
1.130000000000000000e+03,-3.847385722794927077e-01,0.000000000000000000e+00
1.131000000000000000e+03,-1.463354856723898256e-01,0.000000000000000000e+00
1.132000000000000000e+03,2.549736686813778852e-01,0.000000000000000000e+00
1.133000000000000000e+03,2.917831650992749326e-01,0.000000000000000000e+00
1.134000000000000000e+03,-3.914339042879185770e-01,0.000000000000000000e+00
1.135000000000000000e+03,7.751593212111861086e-02,0.000000000000000000e+00
1.136000000000000000e+03,3.253395444541203330e-01,0.000000000000000000e+00
1.137000000000000000e+03,-4.684384850903555719e-01,0.000000000000000000e+00
1.138000000000000000e+03,2.234960532996705940e-01,0.000000000000000000e+00
1.139000000000000000e+03,3.837476812157205042e-01,0.000000000000000000e+00
1.140000000000000000e+03,6.388200559752104102e-01,0.000000000000000000e+00
1.141000000000000000e+03,2.661188582540636727e-01,0.000000000000000000e+00
1.142000000000000000e+03,-3.907244156797168300e-01,0.000000000000000000e+00
1.143000000000000000e+03,3.241098717235922910e-01,0.000000000000000000e+00
1.144000000000000000e+03,6.119350015221165090e-02,0.000000000000000000e+00
1.145000000000000000e+03,1.008350326647092787e+00,0.000000000000000000e+00
1.146000000000000000e+03,-3.131880435366867221e-01,0.000000000000000000e+00
1.147000000000000000e+03,1.161465920315423173e+00,0.000000000000000000e+00
1.148000000000000000e+03,-5.652922320871341111e-02,0.000000000000000000e+00
1.149000000000000000e+03,-5.176694671347472632e-01,0.000000000000000000e+00
1.150000000000000000e+03,-8.205269353272495736e-02,0.000000000000000000e+00
1.151000000000000000e+03,6.957485559801301900e-01,0.000000000000000000e+00
1.152000000000000000e+03,8.617159270620841083e-01,0.000000000000000000e+00
1.153000000000000000e+03,1.178799269985726150e+00,0.000000000000000000e+00
1.154000000000000000e+03,1.178155657731247308e+00,0.000000000000000000e+00
1.155000000000000000e+03,2.382100602344795259e+00,0.000000000000000000e+00
1.156000000000000000e+03,5.808936132975474065e-01,1.000000000000000000e+00
1.157000000000000000e+03,3.634980189393865503e-03,0.000000000000000000e+00
1.158000000000000000e+03,3.072959077653075743e-01,0.000000000000000000e+00
1.159000000000000000e+03,-3.181699321485088605e-01,0.000000000000000000e+00
1.160000000000000000e+03,-5.727693502802344572e-01,0.000000000000000000e+00
1.161000000000000000e+03,-1.669430968907059387e-01,0.000000000000000000e+00
1.162000000000000000e+03,-1.345881598148536418e-01,0.000000000000000000e+00
1.163000000000000000e+03,7.476880130995235962e-01,0.000000000000000000e+00
1.164000000000000000e+03,-1.900750793734191368e-01,0.000000000000000000e+00
1.165000000000000000e+03,2.410252173594740754e-01,0.000000000000000000e+00
1.166000000000000000e+03,8.452570357883092134e-02,0.000000000000000000e+00
1.167000000000000000e+03,1.024924993348254709e+00,0.000000000000000000e+00
1.168000000000000000e+03,4.691182074932487844e-01,0.000000000000000000e+00
1.169000000000000000e+03,1.786174393042846864e+00,0.000000000000000000e+00
1.170000000000000000e+03,7.620864976139835045e-01,0.000000000000000000e+00
1.171000000000000000e+03,7.006580316562520672e-01,0.000000000000000000e+00
1.172000000000000000e+03,9.707198454357797157e-01,0.000000000000000000e+00
1.173000000000000000e+03,2.504479978522077821e-01,0.000000000000000000e+00
1.174000000000000000e+03,-5.065992168476076696e-01,0.000000000000000000e+00
1.175000000000000000e+03,-3.093485388085809862e-01,0.000000000000000000e+00
1.176000000000000000e+03,-1.187529797292413480e+00,0.000000000000000000e+00
1.177000000000000000e+03,-1.870531355790197248e+00,0.000000000000000000e+00
1.178000000000000000e+03,-1.143780141460711164e+00,0.000000000000000000e+00
1.179000000000000000e+03,-1.304509819370906820e+00,0.000000000000000000e+00
1.180000000000000000e+03,-9.661880499729091909e-01,0.000000000000000000e+00
1.181000000000000000e+03,-1.416658294245217720e+00,0.000000000000000000e+00
1.182000000000000000e+03,-7.661443775955273372e-01,0.000000000000000000e+00
1.183000000000000000e+03,-1.051659398372930765e+00,0.000000000000000000e+00
1.184000000000000000e+03,-1.314155403227738939e+00,0.000000000000000000e+00
1.185000000000000000e+03,-5.239010730649278358e-01,0.000000000000000000e+00
1.186000000000000000e+03,-8.537965301708562438e-02,0.000000000000000000e+00
1.187000000000000000e+03,-1.108655467238294778e-01,0.000000000000000000e+00
1.188000000000000000e+03,-5.905225959583411122e-01,0.000000000000000000e+00
1.189000000000000000e+03,-4.384383366552951355e-01,0.000000000000000000e+00
1.190000000000000000e+03,-4.100158438135977357e-01,0.000000000000000000e+00
1.191000000000000000e+03,1.326333118697206326e-01,0.000000000000000000e+00
1.192000000000000000e+03,-2.733896490937847701e-01,0.000000000000000000e+00
1.193000000000000000e+03,-3.301860335638286403e-01,0.000000000000000000e+00
1.194000000000000000e+03,-1.503044738492037291e-01,0.000000000000000000e+00
1.195000000000000000e+03,4.525807412208123770e-01,0.000000000000000000e+00
1.196000000000000000e+03,1.928694293890724221e-01,0.000000000000000000e+00
1.197000000000000000e+03,3.263228329686345131e-01,0.000000000000000000e+00
1.198000000000000000e+03,2.450956788319447188e-01,0.000000000000000000e+00
1.199000000000000000e+03,-3.230621681715860061e-01,0.000000000000000000e+00
1.200000000000000000e+03,-1.701687656103624824e-01,0.000000000000000000e+00
1.201000000000000000e+03,1.780190461516946432e-01,0.000000000000000000e+00
1.202000000000000000e+03,6.369698414475476467e-01,0.000000000000000000e+00
1.203000000000000000e+03,9.284444842262596920e-01,0.000000000000000000e+00
1.204000000000000000e+03,9.901973692740988209e-02,0.000000000000000000e+00
1.205000000000000000e+03,3.176445350735249834e-02,0.000000000000000000e+00
1.206000000000000000e+03,3.874116282152970658e-01,0.000000000000000000e+00
1.207000000000000000e+03,1.708740595733218015e-01,0.000000000000000000e+00
1.208000000000000000e+03,3.829183882776163173e-01,0.000000000000000000e+00
1.209000000000000000e+03,5.709025382320533082e-02,0.000000000000000000e+00
1.210000000000000000e+03,-8.406715493177671084e-01,0.000000000000000000e+00
1.211000000000000000e+03,8.546572015612051709e-01,0.000000000000000000e+00
1.212000000000000000e+03,7.368468505285952208e-01,0.000000000000000000e+00
1.213000000000000000e+03,1.528933319616756714e+00,0.000000000000000000e+00
1.214000000000000000e+03,1.844580238568219510e+00,0.000000000000000000e+00
1.215000000000000000e+03,1.145753402940640875e+00,0.000000000000000000e+00
1.216000000000000000e+03,6.715118891363955345e-02,0.000000000000000000e+00
1.217000000000000000e+03,-2.265763647631925393e-01,1.000000000000000000e+00
1.218000000000000000e+03,-5.337536122830731644e-01,0.000000000000000000e+00
1.219000000000000000e+03,-1.204811738792469500e-01,0.000000000000000000e+00
1.220000000000000000e+03,-6.858401935212744827e-02,0.000000000000000000e+00
1.221000000000000000e+03,1.066857028776537208e-01,0.000000000000000000e+00
1.222000000000000000e+03,4.210355544047622578e-01,0.000000000000000000e+00
1.223000000000000000e+03,-2.894540714554756367e-01,0.000000000000000000e+00
1.224000000000000000e+03,4.891889054758352673e-01,0.000000000000000000e+00
1.225000000000000000e+03,2.789146934224500107e-01,0.000000000000000000e+00
1.226000000000000000e+03,4.049196277595549232e-01,0.000000000000000000e+00
1.227000000000000000e+03,3.601537685029768676e-01,0.000000000000000000e+00
1.228000000000000000e+03,6.859816891373499148e-01,0.000000000000000000e+00
1.229000000000000000e+03,1.131412005538395604e+00,0.000000000000000000e+00
1.230000000000000000e+03,1.778564331222556527e+00,0.000000000000000000e+00
1.231000000000000000e+03,8.214840403873935326e-02,0.000000000000000000e+00
1.232000000000000000e+03,8.591362400058448756e-01,0.000000000000000000e+00
1.233000000000000000e+03,6.434429446140029762e-01,0.000000000000000000e+00
1.234000000000000000e+03,-1.207442963066636787e+00,0.000000000000000000e+00
1.235000000000000000e+03,-8.862214079016083046e-01,0.000000000000000000e+00
1.236000000000000000e+03,-1.761028095266861992e+00,0.000000000000000000e+00
1.237000000000000000e+03,-4.904217250733832745e-01,0.000000000000000000e+00
1.238000000000000000e+03,-1.669030500248711801e+00,0.000000000000000000e+00
1.239000000000000000e+03,-9.975683943083347716e-01,0.000000000000000000e+00
1.240000000000000000e+03,-6.909435949852243963e-01,0.000000000000000000e+00
1.241000000000000000e+03,-1.847361812609797482e+00,0.000000000000000000e+00
1.242000000000000000e+03,-1.148532516010619231e+00,0.000000000000000000e+00
1.243000000000000000e+03,-1.988757258211248935e-01,0.000000000000000000e+00
1.244000000000000000e+03,-9.196134052565183570e-01,0.000000000000000000e+00
1.245000000000000000e+03,-2.229477238285083526e-02,0.000000000000000000e+00
1.246000000000000000e+03,-6.104557161634188711e-01,0.000000000000000000e+00
1.247000000000000000e+03,-1.031235453289901960e+00,0.000000000000000000e+00
1.248000000000000000e+03,4.702188896322430089e-01,0.000000000000000000e+00
1.249000000000000000e+03,-3.469025694466871396e-02,0.000000000000000000e+00
1.250000000000000000e+03,-1.045859363011470089e+00,0.000000000000000000e+00
1.251000000000000000e+03,3.101594443722215932e-01,0.000000000000000000e+00
1.252000000000000000e+03,-1.155054416876351853e-01,0.000000000000000000e+00
1.253000000000000000e+03,-5.018088501998326789e-01,0.000000000000000000e+00
1.254000000000000000e+03,-4.369895796572675351e-01,0.000000000000000000e+00
1.255000000000000000e+03,6.472544551249274081e-01,0.000000000000000000e+00
1.256000000000000000e+03,5.178496261288074720e-01,1.000000000000000000e+00
1.257000000000000000e+03,-1.011824265372785803e+00,0.000000000000000000e+00
1.258000000000000000e+03,1.881835970291839688e-01,0.000000000000000000e+00
1.259000000000000000e+03,1.346790465923456970e-01,0.000000000000000000e+00
1.260000000000000000e+03,3.747477677326502832e-01,0.000000000000000000e+00
1.261000000000000000e+03,-2.447883204463286444e-01,0.000000000000000000e+00
1.262000000000000000e+03,7.129766616378349076e-01,0.000000000000000000e+00
1.263000000000000000e+03,1.607899835209662953e-01,0.000000000000000000e+00
1.264000000000000000e+03,4.275146261351646104e-01,0.000000000000000000e+00
1.265000000000000000e+03,-6.079870051963555122e-01,0.000000000000000000e+00
1.266000000000000000e+03,1.773670289960242175e-01,0.000000000000000000e+00
1.267000000000000000e+03,8.393666939197297339e-01,0.000000000000000000e+00
1.268000000000000000e+03,-4.490120984103824764e-01,0.000000000000000000e+00
1.269000000000000000e+03,-1.275458532851829752e-01,0.000000000000000000e+00
1.270000000000000000e+03,-3.825292507168570610e-01,0.000000000000000000e+00
1.271000000000000000e+03,8.789910650668185665e-01,0.000000000000000000e+00
1.272000000000000000e+03,1.634927956862834542e+00,0.000000000000000000e+00
1.273000000000000000e+03,1.821205713243708280e+00,0.000000000000000000e+00
1.274000000000000000e+03,2.411653597132787930e+00,0.000000000000000000e+00
1.275000000000000000e+03,1.106660697932828175e+00,0.000000000000000000e+00
1.276000000000000000e+03,5.228143937298738164e-01,0.000000000000000000e+00
1.277000000000000000e+03,-7.341965483438778195e-01,0.000000000000000000e+00
1.278000000000000000e+03,-5.339828412346659947e-01,0.000000000000000000e+00
1.279000000000000000e+03,-4.928452577503282250e-01,0.000000000000000000e+00
1.280000000000000000e+03,-3.727467623168602417e-02,0.000000000000000000e+00
1.281000000000000000e+03,-2.250819322164781255e-01,0.000000000000000000e+00
1.282000000000000000e+03,1.814959894028703724e-01,0.000000000000000000e+00
1.283000000000000000e+03,-4.667163021779626719e-01,0.000000000000000000e+00
1.284000000000000000e+03,-7.251732173548502969e-02,0.000000000000000000e+00
1.285000000000000000e+03,9.987212282949292641e-02,0.000000000000000000e+00
1.286000000000000000e+03,5.351625453414329270e-01,0.000000000000000000e+00
1.287000000000000000e+03,5.978380484517290538e-01,0.000000000000000000e+00
1.288000000000000000e+03,4.821534625058216950e-01,0.000000000000000000e+00
1.289000000000000000e+03,8.384152048377530031e-01,0.000000000000000000e+00
1.290000000000000000e+03,1.091777257242343202e+00,0.000000000000000000e+00
1.291000000000000000e+03,7.966355658613514246e-01,0.000000000000000000e+00
1.292000000000000000e+03,1.243908893873605592e+00,0.000000000000000000e+00
1.293000000000000000e+03,-4.403489151810304758e-01,0.000000000000000000e+00
1.294000000000000000e+03,-8.745578688780814014e-01,1.000000000000000000e+00
1.295000000000000000e+03,-9.119498754563508669e-01,0.000000000000000000e+00
1.296000000000000000e+03,-1.540270812808310241e+00,0.000000000000000000e+00
1.297000000000000000e+03,-1.269120943851657524e+00,0.000000000000000000e+00
1.298000000000000000e+03,-1.069341028198335986e+00,0.000000000000000000e+00
1.299000000000000000e+03,-1.084413683261407080e+00,0.000000000000000000e+00
1.300000000000000000e+03,-1.360473910641648576e+00,0.000000000000000000e+00
1.301000000000000000e+03,-7.514059265081355354e-01,0.000000000000000000e+00
1.302000000000000000e+03,-8.677603423273128058e-01,0.000000000000000000e+00
1.303000000000000000e+03,-5.968321119745507719e-01,0.000000000000000000e+00
1.304000000000000000e+03,-1.112227755962831299e+00,0.000000000000000000e+00
1.305000000000000000e+03,-1.909429423346159782e-01,0.000000000000000000e+00
1.306000000000000000e+03,-7.704814784615463541e-01,0.000000000000000000e+00
1.307000000000000000e+03,-3.431834578939930713e-01,0.000000000000000000e+00
1.308000000000000000e+03,8.556201788477554304e-01,0.000000000000000000e+00
1.309000000000000000e+03,-8.928271746709784962e-01,0.000000000000000000e+00
1.310000000000000000e+03,-3.973059549790588507e-01,0.000000000000000000e+00
1.311000000000000000e+03,4.642243374512478038e-01,0.000000000000000000e+00
1.312000000000000000e+03,-3.270530048970900494e-01,0.000000000000000000e+00
1.313000000000000000e+03,-3.256674629441320135e-01,0.000000000000000000e+00
1.314000000000000000e+03,8.564169371246160845e-01,0.000000000000000000e+00
1.315000000000000000e+03,4.312759238060127065e-01,0.000000000000000000e+00
1.316000000000000000e+03,-1.123702267551721423e+00,0.000000000000000000e+00
1.317000000000000000e+03,6.602953250647141115e-01,0.000000000000000000e+00
1.318000000000000000e+03,3.850008600978142570e-01,0.000000000000000000e+00
1.319000000000000000e+03,-4.975312086630447328e-01,0.000000000000000000e+00
1.320000000000000000e+03,2.775400930161424640e-01,0.000000000000000000e+00
1.321000000000000000e+03,1.022957565517012890e+00,0.000000000000000000e+00
1.322000000000000000e+03,5.989962355152368412e-01,0.000000000000000000e+00
1.323000000000000000e+03,-5.534254463192875839e-01,0.000000000000000000e+00
1.324000000000000000e+03,6.359722912700574993e-01,0.000000000000000000e+00
1.325000000000000000e+03,1.688520535473018724e-01,0.000000000000000000e+00
1.326000000000000000e+03,7.285693303552354116e-01,0.000000000000000000e+00
1.327000000000000000e+03,-1.878975757559397664e-01,0.000000000000000000e+00
1.328000000000000000e+03,-5.954893660330187188e-01,0.000000000000000000e+00
1.329000000000000000e+03,2.575709799538477771e-02,0.000000000000000000e+00
1.330000000000000000e+03,5.404128319872593122e-01,0.000000000000000000e+00
1.331000000000000000e+03,8.727032616935400666e-01,0.000000000000000000e+00
1.332000000000000000e+03,1.089112732439063702e+00,0.000000000000000000e+00
1.333000000000000000e+03,2.617169644610291446e+00,0.000000000000000000e+00
1.334000000000000000e+03,2.204038345636336160e+00,0.000000000000000000e+00
1.335000000000000000e+03,9.226050806331388410e-01,0.000000000000000000e+00
1.336000000000000000e+03,8.594974112275945155e-02,1.000000000000000000e+00
1.337000000000000000e+03,-9.455408266884364199e-01,0.000000000000000000e+00
1.338000000000000000e+03,-2.822763619867363349e-01,0.000000000000000000e+00
1.339000000000000000e+03,-1.629708485553406361e-01,0.000000000000000000e+00
1.340000000000000000e+03,-1.470550796676640959e-01,0.000000000000000000e+00
1.341000000000000000e+03,-3.588929018430289664e-01,0.000000000000000000e+00
1.342000000000000000e+03,-6.253887658404760908e-02,0.000000000000000000e+00
1.343000000000000000e+03,-8.201817449752651923e-02,0.000000000000000000e+00
1.344000000000000000e+03,4.635775610293365462e-02,0.000000000000000000e+00
1.345000000000000000e+03,2.564072362806161243e-01,0.000000000000000000e+00
1.346000000000000000e+03,2.068086612246227141e-01,0.000000000000000000e+00
1.347000000000000000e+03,1.254976332143964202e+00,0.000000000000000000e+00
1.348000000000000000e+03,2.647381673491452925e-01,0.000000000000000000e+00
1.349000000000000000e+03,1.548629716240242260e+00,0.000000000000000000e+00
1.350000000000000000e+03,9.208163370408194437e-01,0.000000000000000000e+00
1.351000000000000000e+03,8.750189267390010572e-01,0.000000000000000000e+00
1.352000000000000000e+03,1.141930442189790451e+00,0.000000000000000000e+00
1.353000000000000000e+03,-8.601005121244645890e-01,0.000000000000000000e+00
1.354000000000000000e+03,-1.258225517598550613e+00,0.000000000000000000e+00
1.355000000000000000e+03,-1.173579455598964483e+00,0.000000000000000000e+00
1.356000000000000000e+03,-9.781070800163739198e-01,0.000000000000000000e+00
1.357000000000000000e+03,-1.441700218385939314e+00,0.000000000000000000e+00
1.358000000000000000e+03,-1.154483853083415612e+00,0.000000000000000000e+00
1.359000000000000000e+03,-1.385141867292875473e+00,0.000000000000000000e+00
1.360000000000000000e+03,-4.154542371658033195e-01,0.000000000000000000e+00
1.361000000000000000e+03,-8.576118346975285522e-01,0.000000000000000000e+00
1.362000000000000000e+03,-9.517689469693618731e-01,0.000000000000000000e+00
1.363000000000000000e+03,-1.159348334160799299e+00,0.000000000000000000e+00
1.364000000000000000e+03,-4.603558448450779106e-01,0.000000000000000000e+00
1.365000000000000000e+03,-6.630774305887709996e-01,0.000000000000000000e+00
1.366000000000000000e+03,1.405375883212941525e-02,0.000000000000000000e+00
1.367000000000000000e+03,-7.315523137282227140e-01,0.000000000000000000e+00
1.368000000000000000e+03,-5.872893179980596123e-01,0.000000000000000000e+00
1.369000000000000000e+03,-4.839767301329531840e-02,0.000000000000000000e+00
1.370000000000000000e+03,1.117108804172624592e-01,0.000000000000000000e+00
1.371000000000000000e+03,-7.575886952547190578e-01,0.000000000000000000e+00
1.372000000000000000e+03,4.922879444655602343e-01,0.000000000000000000e+00
1.373000000000000000e+03,1.450023949463369322e-01,0.000000000000000000e+00
1.374000000000000000e+03,-6.051317879949080769e-01,0.000000000000000000e+00
1.375000000000000000e+03,-1.857613482974827535e-01,0.000000000000000000e+00
1.376000000000000000e+03,-3.509575429955384684e-03,0.000000000000000000e+00
1.377000000000000000e+03,6.943553976904570657e-01,0.000000000000000000e+00
1.378000000000000000e+03,2.238499438114357476e-01,0.000000000000000000e+00
1.379000000000000000e+03,2.674384694880571622e-01,0.000000000000000000e+00
1.380000000000000000e+03,-2.197358626090128719e-01,0.000000000000000000e+00
1.381000000000000000e+03,5.666985121643289824e-01,0.000000000000000000e+00
1.382000000000000000e+03,1.880246847787903075e-01,0.000000000000000000e+00
1.383000000000000000e+03,3.507005514527313794e-01,0.000000000000000000e+00
1.384000000000000000e+03,4.370466297525709698e-01,0.000000000000000000e+00
1.385000000000000000e+03,-1.838793885949865647e-01,0.000000000000000000e+00
1.386000000000000000e+03,3.283864159780557346e-01,0.000000000000000000e+00
1.387000000000000000e+03,6.007307748394927760e-01,0.000000000000000000e+00
1.388000000000000000e+03,-5.804607279381942542e-01,0.000000000000000000e+00
1.389000000000000000e+03,1.123988532749876229e-01,0.000000000000000000e+00
1.390000000000000000e+03,6.612307688863066080e-01,0.000000000000000000e+00
1.391000000000000000e+03,6.547253370423473939e-02,0.000000000000000000e+00
1.392000000000000000e+03,1.199076617493898489e+00,0.000000000000000000e+00
1.393000000000000000e+03,2.682901050449253422e+00,0.000000000000000000e+00
1.394000000000000000e+03,1.516432450277342969e+00,1.000000000000000000e+00
1.395000000000000000e+03,-2.591515361900527115e-01,0.000000000000000000e+00
1.396000000000000000e+03,3.918347190132979996e-02,0.000000000000000000e+00
1.397000000000000000e+03,-4.833339542752740359e-01,0.000000000000000000e+00
1.398000000000000000e+03,2.656907483791354774e-01,0.000000000000000000e+00
1.399000000000000000e+03,-4.625373076552274920e-01,0.000000000000000000e+00
1.400000000000000000e+03,-3.190979137156183532e-01,0.000000000000000000e+00
1.401000000000000000e+03,2.659596123973255177e-01,0.000000000000000000e+00
1.402000000000000000e+03,2.025404291764517362e-01,0.000000000000000000e+00
1.403000000000000000e+03,3.171596611828101930e-01,0.000000000000000000e+00
1.404000000000000000e+03,3.914812915930375170e-01,0.000000000000000000e+00
1.405000000000000000e+03,9.066682891076072170e-02,0.000000000000000000e+00
1.406000000000000000e+03,5.691600537046667130e-01,0.000000000000000000e+00
1.407000000000000000e+03,1.361554074554171434e+00,0.000000000000000000e+00
1.408000000000000000e+03,1.118849499925755886e+00,0.000000000000000000e+00
1.409000000000000000e+03,1.063783812963830622e+00,0.000000000000000000e+00
1.410000000000000000e+03,9.244224082058686287e-01,0.000000000000000000e+00
1.411000000000000000e+03,7.687089413846950325e-01,0.000000000000000000e+00
1.412000000000000000e+03,3.275867545602511033e-01,0.000000000000000000e+00
1.413000000000000000e+03,-7.897054684071715958e-01,0.000000000000000000e+00
1.414000000000000000e+03,-9.855506096636108548e-01,0.000000000000000000e+00
1.415000000000000000e+03,-1.481400266036457358e+00,0.000000000000000000e+00
1.416000000000000000e+03,-1.028379564004060720e+00,0.000000000000000000e+00
1.417000000000000000e+03,-1.225180430861559033e+00,0.000000000000000000e+00
1.418000000000000000e+03,-1.825796416831803048e+00,0.000000000000000000e+00
1.419000000000000000e+03,-9.488325416590184247e-01,0.000000000000000000e+00
1.420000000000000000e+03,-1.153352371659475128e+00,0.000000000000000000e+00
1.421000000000000000e+03,-8.789096317822917559e-01,0.000000000000000000e+00
1.422000000000000000e+03,-7.708450987823766143e-01,0.000000000000000000e+00
1.423000000000000000e+03,-9.326458063304550183e-01,0.000000000000000000e+00
1.424000000000000000e+03,-2.569354547234892761e-01,0.000000000000000000e+00
1.425000000000000000e+03,-2.886755488483827570e-01,0.000000000000000000e+00
1.426000000000000000e+03,-6.932615937375968818e-01,0.000000000000000000e+00
1.427000000000000000e+03,-2.621407723649809562e-01,0.000000000000000000e+00
1.428000000000000000e+03,-1.289120511834938032e-01,0.000000000000000000e+00
1.429000000000000000e+03,3.250381344469109590e-03,0.000000000000000000e+00
1.430000000000000000e+03,-4.753123126109157215e-01,0.000000000000000000e+00
1.431000000000000000e+03,-1.560181138298338474e-02,0.000000000000000000e+00
1.432000000000000000e+03,-7.119020610566172413e-01,0.000000000000000000e+00
1.433000000000000000e+03,-9.330394291731071432e-02,0.000000000000000000e+00
1.434000000000000000e+03,2.443981730949578990e-01,0.000000000000000000e+00
1.435000000000000000e+03,9.184887485077124214e-02,0.000000000000000000e+00
1.436000000000000000e+03,-2.073602137283514155e-02,0.000000000000000000e+00
1.437000000000000000e+03,-1.034022753387736915e-01,0.000000000000000000e+00
1.438000000000000000e+03,8.572852909319102210e-02,0.000000000000000000e+00
1.439000000000000000e+03,4.862172049125002560e-01,0.000000000000000000e+00
1.440000000000000000e+03,3.146726750036475395e-01,0.000000000000000000e+00
1.441000000000000000e+03,-7.085904027893451529e-01,0.000000000000000000e+00
1.442000000000000000e+03,4.751878990853101170e-01,0.000000000000000000e+00
1.443000000000000000e+03,-9.718983857158872142e-02,0.000000000000000000e+00
1.444000000000000000e+03,6.056714770152661353e-01,0.000000000000000000e+00
1.445000000000000000e+03,1.733836468796294203e-02,0.000000000000000000e+00
1.446000000000000000e+03,2.284889645030739880e-01,0.000000000000000000e+00
1.447000000000000000e+03,2.579281571236030635e-01,0.000000000000000000e+00
1.448000000000000000e+03,-4.933584268452940735e-01,0.000000000000000000e+00
1.449000000000000000e+03,-1.236313190003020396e-01,0.000000000000000000e+00
1.450000000000000000e+03,1.632429462018661459e+00,0.000000000000000000e+00
1.451000000000000000e+03,4.992314884939074160e-01,0.000000000000000000e+00
1.452000000000000000e+03,1.661805765205656149e+00,0.000000000000000000e+00
1.453000000000000000e+03,3.159768608325736583e+00,0.000000000000000000e+00
1.454000000000000000e+03,1.511920982439115990e+00,0.000000000000000000e+00
1.455000000000000000e+03,-3.195602837411355979e-01,0.000000000000000000e+00
1.456000000000000000e+03,-1.262122139479471494e+00,1.000000000000000000e+00
1.457000000000000000e+03,6.001085918186207513e-01,0.000000000000000000e+00
1.458000000000000000e+03,-8.481757596839648583e-01,0.000000000000000000e+00
1.459000000000000000e+03,-6.207271301650275630e-01,0.000000000000000000e+00
1.460000000000000000e+03,-3.366935826338050552e-01,0.000000000000000000e+00
1.461000000000000000e+03,2.363597747556900330e-01,0.000000000000000000e+00
1.462000000000000000e+03,-5.065872614284652048e-02,0.000000000000000000e+00
1.463000000000000000e+03,7.084036484959607138e-01,0.000000000000000000e+00
1.464000000000000000e+03,1.240697979125673783e-01,0.000000000000000000e+00
1.465000000000000000e+03,-1.064254388339393037e-01,0.000000000000000000e+00
1.466000000000000000e+03,3.496940919852321028e-01,0.000000000000000000e+00
1.467000000000000000e+03,9.722705029102322039e-01,0.000000000000000000e+00
1.468000000000000000e+03,1.619186601949103466e+00,0.000000000000000000e+00
1.469000000000000000e+03,4.641581452961378584e-01,0.000000000000000000e+00
1.470000000000000000e+03,1.483856886784739482e+00,0.000000000000000000e+00
1.471000000000000000e+03,3.272814577893821131e-01,0.000000000000000000e+00
1.472000000000000000e+03,7.299011185934778378e-01,0.000000000000000000e+00
1.473000000000000000e+03,-1.181664717571416112e+00,0.000000000000000000e+00
1.474000000000000000e+03,-1.314495742966097280e+00,0.000000000000000000e+00
1.475000000000000000e+03,-1.598193538647629586e+00,0.000000000000000000e+00
1.476000000000000000e+03,-5.615085552408476399e-01,0.000000000000000000e+00
1.477000000000000000e+03,-1.878142392603007194e+00,0.000000000000000000e+00
1.478000000000000000e+03,-1.229664498085429214e+00,0.000000000000000000e+00
1.479000000000000000e+03,-6.549933669206017273e-01,0.000000000000000000e+00
1.480000000000000000e+03,-1.328750845386455159e+00,0.000000000000000000e+00
1.481000000000000000e+03,-2.861929906515217059e-01,0.000000000000000000e+00
1.482000000000000000e+03,-4.657131638695651277e-01,0.000000000000000000e+00
1.483000000000000000e+03,-1.431257271723089364e+00,0.000000000000000000e+00
1.484000000000000000e+03,-5.172808029661761786e-01,0.000000000000000000e+00
1.485000000000000000e+03,-3.141375080491224936e-01,0.000000000000000000e+00
1.486000000000000000e+03,1.142244459556958532e-02,0.000000000000000000e+00
1.487000000000000000e+03,-9.650655768912702603e-01,0.000000000000000000e+00
1.488000000000000000e+03,9.004291738091798614e-01,0.000000000000000000e+00
1.489000000000000000e+03,-5.229457877817803579e-01,0.000000000000000000e+00
1.490000000000000000e+03,-3.279153801763407539e-01,0.000000000000000000e+00
1.491000000000000000e+03,-5.817737406404613898e-01,0.000000000000000000e+00
1.492000000000000000e+03,1.101822758358803167e+00,0.000000000000000000e+00
1.493000000000000000e+03,-8.683847581411445471e-02,1.000000000000000000e+00
1.494000000000000000e+03,-7.334602188048412463e-01,0.000000000000000000e+00
1.495000000000000000e+03,2.682133011853971016e-01,0.000000000000000000e+00
1.496000000000000000e+03,1.924444532006082120e-01,0.000000000000000000e+00
1.497000000000000000e+03,6.873497122503553769e-02,0.000000000000000000e+00
1.498000000000000000e+03,-1.514824197192915778e-01,0.000000000000000000e+00
1.499000000000000000e+03,1.244873886550759590e+00,0.000000000000000000e+00
1.500000000000000000e+03,-3.373403469187587489e-01,0.000000000000000000e+00
1.501000000000000000e+03,-1.385551482529893789e-02,0.000000000000000000e+00
1.502000000000000000e+03,6.428517716785873137e-01,0.000000000000000000e+00
1.503000000000000000e+03,6.495775254105844443e-01,0.000000000000000000e+00
1.504000000000000000e+03,1.835057715307379655e-01,0.000000000000000000e+00
1.505000000000000000e+03,1.633247432320069845e-02,0.000000000000000000e+00
1.506000000000000000e+03,-2.988092342115524769e-01,0.000000000000000000e+00
1.507000000000000000e+03,2.281671212259555048e-01,0.000000000000000000e+00
1.508000000000000000e+03,-5.214094951187419058e-01,0.000000000000000000e+00
1.509000000000000000e+03,6.053366961826903703e-01,0.000000000000000000e+00
1.510000000000000000e+03,1.284211122608164501e+00,0.000000000000000000e+00
1.511000000000000000e+03,3.205294501565486565e-01,0.000000000000000000e+00
1.512000000000000000e+03,2.773167093819340678e+00,0.000000000000000000e+00
1.513000000000000000e+03,2.311038128148620086e+00,0.000000000000000000e+00
1.514000000000000000e+03,7.389841553057867607e-01,0.000000000000000000e+00
1.515000000000000000e+03,-7.318076087193217116e-01,0.000000000000000000e+00
1.516000000000000000e+03,-1.561338659934989326e-01,0.000000000000000000e+00
1.517000000000000000e+03,-7.902644930716685723e-01,0.000000000000000000e+00
1.518000000000000000e+03,-4.566348878441955916e-02,0.000000000000000000e+00
1.519000000000000000e+03,-1.738204625582691620e-01,0.000000000000000000e+00
1.520000000000000000e+03,-2.658001027839402841e-01,0.000000000000000000e+00
1.521000000000000000e+03,3.744441943836001041e-01,0.000000000000000000e+00
1.522000000000000000e+03,-6.534364709416309314e-01,0.000000000000000000e+00
1.523000000000000000e+03,1.361880690354616563e-01,0.000000000000000000e+00
1.524000000000000000e+03,1.165205310271114847e+00,0.000000000000000000e+00
1.525000000000000000e+03,-9.481102547466192798e-02,0.000000000000000000e+00
1.526000000000000000e+03,4.250745841973115335e-01,0.000000000000000000e+00
1.527000000000000000e+03,1.383942999803344120e+00,0.000000000000000000e+00
1.528000000000000000e+03,1.439826797356413168e+00,0.000000000000000000e+00
1.529000000000000000e+03,8.267732939135657988e-01,0.000000000000000000e+00
1.530000000000000000e+03,1.004436899114866888e+00,0.000000000000000000e+00
1.531000000000000000e+03,6.537664429767519048e-01,0.000000000000000000e+00
1.532000000000000000e+03,-1.736744611057606247e-01,0.000000000000000000e+00
1.533000000000000000e+03,-1.152551897617825505e+00,1.000000000000000000e+00
1.534000000000000000e+03,-1.579953770346361974e+00,0.000000000000000000e+00
1.535000000000000000e+03,-1.225606379429456716e+00,0.000000000000000000e+00
1.536000000000000000e+03,-9.510210780629073657e-01,0.000000000000000000e+00
1.537000000000000000e+03,-1.429376837259515920e+00,0.000000000000000000e+00
1.538000000000000000e+03,-9.194081927354704753e-01,0.000000000000000000e+00
1.539000000000000000e+03,-1.041046337659963683e+00,0.000000000000000000e+00
1.540000000000000000e+03,-1.774286302077489719e+00,0.000000000000000000e+00
1.541000000000000000e+03,-4.524481907459475538e-01,0.000000000000000000e+00
1.542000000000000000e+03,-1.338635447391094413e+00,0.000000000000000000e+00
1.543000000000000000e+03,-2.325308216337231837e-01,0.000000000000000000e+00
1.544000000000000000e+03,-5.085120376380002361e-01,0.000000000000000000e+00
1.545000000000000000e+03,-4.322880892231191763e-01,0.000000000000000000e+00
1.546000000000000000e+03,-9.140496782579669161e-03,0.000000000000000000e+00
1.547000000000000000e+03,-2.290028116917949275e-01,0.000000000000000000e+00
1.548000000000000000e+03,-3.398273835937056231e-01,0.000000000000000000e+00
1.549000000000000000e+03,-7.367009827323637294e-01,0.000000000000000000e+00
1.550000000000000000e+03,1.608353016095346866e-01,0.000000000000000000e+00
1.551000000000000000e+03,2.556382741321107099e-01,0.000000000000000000e+00
1.552000000000000000e+03,-4.670900593675205714e-01,0.000000000000000000e+00
1.553000000000000000e+03,6.025214085466788078e-02,0.000000000000000000e+00
1.554000000000000000e+03,1.109364670768381647e-03,0.000000000000000000e+00
1.555000000000000000e+03,1.595201107490525627e-01,0.000000000000000000e+00
1.556000000000000000e+03,4.973403086885267999e-01,0.000000000000000000e+00
1.557000000000000000e+03,-5.620982722287219957e-01,0.000000000000000000e+00
1.558000000000000000e+03,8.352116596347524125e-01,0.000000000000000000e+00
1.559000000000000000e+03,-1.647178821840200591e-01,0.000000000000000000e+00
1.560000000000000000e+03,1.236757968869228036e-01,0.000000000000000000e+00
1.561000000000000000e+03,1.185392691660846348e-01,0.000000000000000000e+00
1.562000000000000000e+03,1.726370922732030633e-01,0.000000000000000000e+00
1.563000000000000000e+03,3.354053922444897307e-01,0.000000000000000000e+00
1.564000000000000000e+03,1.316699279838749181e-01,0.000000000000000000e+00
1.565000000000000000e+03,6.237308298673973628e-01,0.000000000000000000e+00
1.566000000000000000e+03,-3.544533287439772806e-01,0.000000000000000000e+00
1.567000000000000000e+03,-8.537072038087087367e-02,0.000000000000000000e+00
1.568000000000000000e+03,5.520025021806185261e-01,0.000000000000000000e+00
1.569000000000000000e+03,-2.214766149065303946e-01,0.000000000000000000e+00
1.570000000000000000e+03,1.069188665252641446e+00,0.000000000000000000e+00
1.571000000000000000e+03,1.528101283109039921e+00,0.000000000000000000e+00
1.572000000000000000e+03,2.156682226400346902e+00,0.000000000000000000e+00
1.573000000000000000e+03,2.805813112296398071e+00,0.000000000000000000e+00
1.574000000000000000e+03,-2.559912400632827212e-01,1.000000000000000000e+00
1.575000000000000000e+03,-6.478834773456269014e-01,0.000000000000000000e+00
1.576000000000000000e+03,-1.189969874451891722e-02,0.000000000000000000e+00
1.577000000000000000e+03,-6.389644531116270842e-01,0.000000000000000000e+00
1.578000000000000000e+03,3.557453547533467320e-01,0.000000000000000000e+00
1.579000000000000000e+03,-5.167663905190130746e-01,0.000000000000000000e+00
1.580000000000000000e+03,-1.988354827882837517e-01,0.000000000000000000e+00
1.581000000000000000e+03,-4.978215127735381995e-01,0.000000000000000000e+00
1.582000000000000000e+03,3.231829497777804483e-01,0.000000000000000000e+00
1.583000000000000000e+03,9.876970216368261557e-01,0.000000000000000000e+00
1.584000000000000000e+03,-1.248491988600125557e-01,0.000000000000000000e+00
1.585000000000000000e+03,-2.550278054436011521e-02,0.000000000000000000e+00
1.586000000000000000e+03,1.559112762058897372e+00,0.000000000000000000e+00
1.587000000000000000e+03,7.581096771226190911e-02,0.000000000000000000e+00
